BEGIN IONS
TITLE=File220 Spectrum6146 scans: 8341
PEPMASS=1216.0276 0.0
CHARGE=3+

339.2480 5.0818
343.4170 11.7981
345.1680 11.3884
349.7500 7.2378
351.2870 8.3916
364.7480 6.2388
377.2620 9.0977
381.1750 3.6857
384.4280 26.8684
389.2560 117.3760
390.2210 26.5667
395.0040 9.3984
396.2710 8.2474
397.0150 3.6395
399.1960 6.4498
400.2030 2.4749
409.2770 9.6434
410.7210 25.7063
412.3150 44.1066
419.4190 3.8616
424.3100 46.4757
426.3510 27.9409
428.3150 9.5704
429.4320 11.4045
430.2240 8.6056
436.4350 25.3902
437.4390 7.7408
438.1420 14.6812
439.3410 22.4674
440.2240 10.5935
441.2270 26.7537
446.9950 10.6777
449.2960 19.4438
452.0030 8.9085
453.3970 13.6614
454.5420 6.6928
456.2660 13.5092
457.1840 18.2673
457.8890 22.1494
460.2730 6.0822
461.4990 14.1942
462.2810 5.4707
464.4520 16.1452
465.3950 5.8036
468.3610 15.2559
469.4980 13.1999
472.1940 8.7823
474.2960 8.4597
475.2600 2.5513
477.0250 22.7670
478.5160 7.6593
479.4940 18.3680
480.3330 6.9898
482.1890 39.1483
484.1830 18.3258
486.6610 7.2168
491.5060 7.9849
493.3690 14.4716
494.3360 22.3995
495.3660 7.6754
498.2050 14.8519
499.3180 45.4354
500.3310 12.1806
502.2350 9.8402
504.4400 7.6264
505.2500 9.5969
506.3840 10.7780
508.3620 11.0139
510.2800 29.6547
511.2650 15.8001
512.3560 15.7563
513.1020 14.7068
514.2870 11.6952
515.2510 6.0159
516.2440 22.1534
517.2600 231.2400
517.9940 81.4009
518.8770 6.0667
520.3310 21.9403
524.3110 20.4807
527.5680 3.5700
528.4220 11.6456
529.2690 13.1864
531.4560 16.2331
537.5020 6.4689
538.2590 7.5264
540.2510 33.7981
541.2930 5.9916
544.4860 10.5816
547.2370 9.2916
550.2960 5.0672
552.0160 12.6941
554.3680 58.6785
555.3130 19.2500
561.5110 14.4999
564.8680 3.0244
566.2480 57.4604
568.3890 18.5502
569.4390 14.0717
570.3830 21.3531
572.4780 17.8155
573.2780 5.9335
574.5150 7.4225
578.3990 25.6546
579.3350 5.7699
580.1780 4.9153
581.7700 3.4277
583.4730 13.7641
584.3470 12.7065
585.6000 29.7199
586.2670 8.7727
587.2830 26.5721
589.4160 46.7220
590.4150 17.4574
593.4970 28.6382
595.1250 7.3815
596.3170 43.3224
597.3820 32.2118
598.3600 27.7852
599.3430 40.0829
600.2170 2.0503
601.4330 17.6828
604.3000 49.2557
606.3680 5.7106
607.3430 12.1500
608.3790 32.7427
609.5160 13.0914
611.4340 18.8240
612.3510 6.9786
613.4280 4.8554
614.3510 5.1075
615.6970 11.9323
616.5500 179.8500
617.3720 59.3648
622.4390 5.5051
623.5340 9.3865
624.4450 15.7265
625.4720 39.1887
626.5110 29.8407
627.3850 39.8160
628.6140 3.2084
629.5260 14.4902
630.3330 12.5959
632.5030 26.5668
633.6410 17.4368
637.5580 13.8755
638.4400 14.5158
639.3710 38.4310
641.0880 6.8138
642.2400 23.8417
644.3260 20.3305
645.4520 15.5960
646.6010 3.4554
647.4620 13.0909
648.2650 23.5780
650.6290 8.2320
651.5420 47.7960
653.5750 19.2538
654.4270 36.9856
655.5550 9.0899
656.1730 10.2466
658.2930 12.0803
660.4550 5.4835
661.3720 11.7925
662.4220 31.3148
664.5330 20.3929
666.5040 17.4598
667.4360 24.7291
668.7710 61.5869
669.7840 21.1563
671.4320 16.7723
673.2830 9.2509
675.4840 17.8626
676.4990 42.9088
677.4480 8.9121
679.5590 20.9149
680.6660 8.2479
682.5260 14.5487
684.0310 71.9783
685.3950 6.6904
686.4520 20.3828
687.4470 25.3553
692.6290 22.2647
694.4230 17.7917
695.5420 24.1434
696.6030 25.2668
697.4270 7.1042
698.6520 12.1895
701.4540 11.9706
702.5340 9.6152
704.6770 6.0920
705.3560 12.5195
706.4650 4.4692
707.2880 5.6991
708.3820 9.4550
711.0210 22.1452
711.8150 5.6834
712.4890 3.6057
713.3600 6.6324
715.4660 4.7241
716.4520 15.5841
717.4460 3.9308
718.5090 31.5682
720.5630 10.7956
721.2120 22.3123
726.5670 17.7906
727.3910 10.0365
728.6430 17.5745
729.5670 58.7274
730.5270 27.3670
731.2030 25.3921
732.8040 12.9040
734.2700 17.0009
735.4530 7.6732
736.5370 26.5795
737.5040 38.7508
738.4530 12.2591
739.4630 26.9035
741.2960 11.1608
742.5350 23.8446
744.3880 15.2458
745.5810 9.9936
746.6400 25.4192
747.6500 30.8673
748.6810 5.8476
749.5520 25.6217
751.4390 23.9676
752.2730 36.0339
753.4070 54.3483
754.3000 91.8901
755.4980 38.1360
756.4610 25.4803
757.2360 13.0395
758.4540 6.4523
760.2960 43.5392
761.1950 16.4621
763.3640 80.1721
764.7650 13.3900
765.4880 18.9033
766.4540 35.9603
767.8650 19.3863
769.6290 63.4070
771.7810 7.8477
772.7630 42.1123
773.7760 3.2876
774.5240 8.4749
776.0800 4.3400
778.7990 15.2365
779.6390 9.5737
780.6090 22.0958
783.4250 43.7604
784.4900 18.3018
785.1760 8.9637
785.9600 12.5236
786.9260 41.2967
788.3550 4.5336
790.0140 22.7813
790.7450 21.0244
791.7630 11.6114
792.8480 7.0878
796.4860 41.9948
797.1030 9.8042
798.4440 4.7622
799.6140 7.4795
802.5950 25.9833
804.4120 27.9192
806.6770 89.7252
807.8140 17.5422
809.5590 37.5178
810.4770 14.3492
811.5860 35.1477
814.5250 63.4007
816.4870 208.2420
817.6880 77.4313
818.4810 49.2388
820.7660 11.7266
821.9060 18.9263
822.6600 42.8074
826.3580 24.8043
827.8140 16.7329
828.4750 7.9319
829.1950 22.4941
830.5440 66.0798
831.6960 16.5490
832.5500 6.7268
834.8080 20.1562
835.5720 33.5705
839.1450 28.4786
840.1490 7.5272
841.9840 13.6272
843.6090 9.8253
844.6250 27.5503
846.5310 28.1371
848.1930 21.0977
849.4750 20.3702
850.6090 6.5630
851.7360 31.4312
852.6520 24.1493
853.3880 11.1285
854.5600 10.3489
855.4250 38.8557
856.4040 12.9042
858.6040 25.2912
859.5910 32.3735
860.5920 16.3924
861.4610 27.0517
862.5900 26.1557
863.5870 14.7771
864.3150 13.1346
865.4780 19.2112
866.9850 11.8808
868.6840 47.0796
869.4800 15.0426
870.3540 38.3480
871.2170 29.2232
872.6260 18.6964
873.5260 9.5210
874.7850 7.1456
875.5730 11.4247
878.7440 9.8108
879.4640 73.7330
880.6420 56.3190
881.5910 16.8472
882.5160 29.4558
883.7090 37.3424
884.7760 14.8305
885.6330 2.9205
887.6060 10.4448
889.2440 11.0402
892.5560 13.0962
893.4570 11.8916
894.6270 22.3335
896.6360 69.7334
897.5220 125.8440
898.2910 32.4373
899.4580 27.3599
900.4830 8.6243
901.5150 49.2887
902.6530 20.0211
903.5430 16.3411
904.6060 22.0141
905.5630 14.0435
906.6970 11.9044
907.6520 31.6483
908.7690 23.1227
909.6540 33.0270
910.6120 11.3591
911.4900 9.3386
912.7050 21.8981
913.6590 21.4297
914.5460 6.5253
915.6740 24.1907
916.8840 42.2811
920.3420 11.2356
921.6920 51.8871
922.8750 50.3638
923.5620 64.2969
924.7160 42.4676
925.8940 49.4061
926.7810 32.2655
927.4990 15.6255
928.5560 71.6663
929.6610 29.1774
930.3700 9.7113
931.6470 12.7578
933.7550 71.1058
934.7100 38.5382
935.6030 2.8533
936.7710 22.5195
939.7000 68.2437
940.3540 9.6040
943.3860 13.3617
944.6820 214.2460
945.6800 162.4640
946.5860 12.6195
947.5820 22.3384
949.0710 19.3652
950.9660 25.0567
951.6980 15.2804
952.4790 14.1536
953.2630 31.3439
954.4870 15.7739
955.2840 15.9626
958.6150 25.3119
959.7380 26.1517
961.5550 31.0589
962.8560 6.5740
963.7670 59.8075
964.7160 70.1189
965.7750 53.8537
966.7850 37.2130
968.2900 5.5221
969.1380 22.0441
971.1090 25.8315
972.6920 58.1358
973.7420 18.0409
974.6250 36.3801
975.5990 45.2815
976.6160 56.7010
977.7180 10.9503
978.8470 15.3197
979.6900 14.8850
980.5280 128.8900
981.6460 55.0050
982.5700 33.7607
983.6160 10.7772
986.4030 19.2185
988.2580 39.9161
989.0060 14.7464
989.8920 16.0741
991.6250 17.7697
992.7600 131.5730
993.6250 261.0560
994.6470 91.1098
995.8860 72.9288
996.7890 41.8201
998.8770 46.4620
999.8260 87.2838
1000.6640 40.0012
1002.6930 5.8286
1003.5600 12.2391
1005.7010 44.0569
1006.6480 18.0061
1008.4990 271.6750
1009.1560 70.5959
1010.6100 1663.5400
1011.6060 759.2080
1012.6710 228.1820
1013.5410 5.6370
1014.6580 35.2498
1015.9770 40.2476
1016.7420 53.8624
1018.1020 71.4516
1018.7750 49.7085
1020.4670 6.0023
1022.0840 30.5460
1022.7400 10.4697
1024.6110 140.0330
1025.7210 68.3365
1026.6660 51.8209
1027.6540 43.5725
1029.7710 61.8857
1030.5870 48.0226
1031.9480 40.8432
1032.9360 6.3235
1033.6300 8.4563
1034.7670 10.0625
1035.9070 39.2518
1036.7690 12.5646
1037.9220 62.1760
1039.0710 37.6203
1039.7420 50.2557
1040.8060 28.3548
1042.3170 14.2777
1043.7690 270.1670
1044.6880 93.7110
1045.4410 64.7072
1046.5350 41.5509
1047.8320 7.4622
1049.3550 61.9867
1052.0700 93.5812
1053.1150 96.0939
1053.8490 48.7574
1054.6600 46.7678
1056.6340 20.7552
1058.9340 32.2781
1060.0370 33.8156
1061.1980 70.7289
1062.2340 65.9708
1063.5940 22.3063
1064.8890 201.3050
1065.6780 29.2962
1066.6100 8.2584
1067.5940 9.9752
1068.8080 5.7787
1069.6490 23.7494
1070.6360 18.2995
1071.4930 19.1173
1072.7250 22.4079
1075.7430 17.1071
1076.5630 9.7621
1077.3150 7.7398
1078.7140 41.6999
1079.7730 68.3568
1080.9410 39.5051
1081.6170 51.2826
1082.5650 27.7493
1083.7760 39.4310
1085.7740 30.1285
1086.7260 69.6304
1087.7880 14.5444
1089.1360 40.5746
1090.0040 4.5076
1090.7670 24.8902
1092.6030 19.0441
1093.7390 79.4080
1094.7370 19.6172
1095.4670 4.4206
1096.9000 57.8090
1097.7090 29.8850
1098.5650 72.5462
1099.8070 38.5399
1100.5170 10.2977
1101.5140 34.8566
1102.5300 99.7879
1103.4880 7.5063
1104.7060 31.6442
1105.6250 20.7391
1106.5340 4.5205
1107.7720 30.1219
1108.9560 12.6406
1109.9460 49.7502
1111.4400 145.4860
1112.6820 97.1523
1113.6410 37.0449
1114.7230 6.9747
1115.6230 12.6252
1116.4150 26.2938
1117.9200 30.9529
1118.6370 2.4446
1119.5290 8.6935
1121.0470 56.8227
1122.1270 24.5239
1125.5360 38.9239
1130.6840 124.7040
1131.8510 29.6662
1132.5920 9.7280
1134.1290 72.1322
1137.5560 29.0586
1138.8930 88.2276
1140.3570 105.9990
1142.6460 95.5166
1143.5330 60.6279
1145.7650 43.1300
1146.9920 13.0830
1148.0420 37.6759
1148.7960 71.1977
1149.9280 80.7143
1150.7470 24.6084
1151.5230 24.6444
1152.7920 79.2439
1154.3920 27.1825
1156.0110 68.3970
1156.8310 165.8830
1157.7480 52.4847
1158.8860 113.2980
1159.7510 16.3436
1160.7130 26.8696
1161.5350 60.3593
1162.2800 49.5555
1163.3970 48.9635
1164.5690 26.5906
1165.7440 48.7035
1166.6280 33.8625
1167.6260 33.4847
1168.8280 6.5640
1170.0460 814.8590
1170.8950 271.9450
1171.8800 68.5743
1172.6890 79.4092
1173.7670 15.4578
1174.4550 27.9934
1175.8920 79.4834
1176.6940 30.2774
1177.5480 14.1911
1179.8350 46.8969
1180.7990 52.7467
1181.6220 59.7871
1182.6790 117.3720
1184.4540 145.0160
1185.7160 201.3490
1186.8910 33.1390
1187.5780 23.3711
1188.3650 31.9284
1190.0410 52.3133
1191.0690 63.2554
1192.0730 35.5138
1192.7710 40.2561
1193.6370 43.6612
1194.7310 206.5530
1196.1420 63.5454
1197.9260 208.7680
1198.7570 104.2280
1199.6400 58.3971
1200.4550 113.3580
1201.8160 195.5680
1203.7030 163.7760
1204.6710 57.1470
1205.6840 41.2427
1217.6310 8.3471
1219.2130 11.7019
1220.0030 16.2229
1220.8420 154.3240
1221.8730 103.0840
1222.5870 9.3405
1223.7870 15.1764
1224.8340 24.5668
1225.8340 48.8770
1229.9120 9.8973
1233.5110 4.3065
1235.3050 5.5629
1236.8580 74.9375
1240.2660 28.9408
1241.0530 5.1573
1243.8910 346.2310
1244.8670 308.3160
1245.7690 84.0338
1247.5030 73.7959
1251.7580 34.4827
1253.1610 19.6199
1254.2010 25.7852
1257.5960 10.3797
1259.6280 35.6524
1260.3740 32.9901
1261.9530 90.5410
1263.3070 15.1215
1264.0210 16.2083
1264.7760 40.5453
1265.6150 28.0470
1266.8020 42.5831
1268.5760 18.4358
1269.7170 18.5145
1271.2700 16.3816
1272.0020 3.1483
1272.8840 3.1739
1273.6220 28.6330
1276.7630 34.5427
1277.9800 38.2675
1279.2300 46.2318
1279.8520 27.9523
1280.8690 46.4184
1281.7700 18.6994
1282.6140 23.3587
1284.2920 58.2365
1285.7820 12.0423
1286.8680 16.0558
1288.0380 4.3795
1288.7900 28.0325
1289.8210 69.1121
1290.8930 61.7309
1291.9090 19.2213
1292.9170 83.5863
1294.0920 76.7006
1295.4520 46.8742
1297.8220 56.2016
1298.8820 16.6614
1299.7600 48.5334
1300.7690 8.6227
1302.1810 121.3520
1302.9400 22.8474
1306.6430 11.8333
1307.9400 318.9370
1309.0330 261.4540
1310.0810 453.3120
1310.7650 107.7950
1311.7310 2.9190
1313.0490 51.4362
1313.8840 6.3116
1316.7860 38.7032
1318.6470 4252.5000
1319.3920 1847.0400
1320.6100 77.6643
1321.5640 42.0520
1322.7200 24.7504
1323.6590 14.4744
1325.9290 13.8145
1328.4840 12.6209
1330.1570 28.1597
1331.4610 5.2479
1332.3010 20.7091
1333.5770 40.8105
1334.3690 62.5148
1335.1890 12.0384
1335.8200 9.3611
1336.9690 32.4245
1337.8120 35.4481
1338.9150 41.6238
1339.7860 26.9765
1340.7940 14.2125
1341.9620 25.0493
1343.0150 100.2190
1343.9670 2.7458
1345.2890 29.8017
1350.1300 93.9398
1351.1720 47.8710
1352.1200 75.7593
1352.8550 22.4762
1353.6880 10.2336
1355.1680 40.9201
1356.8850 130.2940
1358.0590 49.5607
1359.3240 18.8705
1360.1350 18.1643
1361.4610 4.4510
1363.1110 58.9374
1363.7280 8.4668
1365.0180 86.7713
1366.0620 119.6760
1366.8330 84.7893
1367.8220 54.1204
1370.4200 12.9814
1372.9460 3.7968
1375.3110 194.6040
1375.9440 164.3270
1377.0180 35.0040
1377.8910 10.6590
1379.6890 45.8347
1380.3750 60.0384
1381.8700 23.0252
1382.8850 10.9010
1384.4410 39.4582
1385.4700 21.0461
1387.3150 22.1669
1388.5330 7.4230
1389.2470 11.0456
1389.8830 23.5874
1391.9880 8.9789
1393.0170 93.0591
1394.0240 110.7640
1395.2030 20.7061
1396.3380 27.1666
1398.0340 9.5957
1399.0400 14.0028
1401.0350 32.2681
1402.0560 21.4286
1404.8750 24.3655
1405.7810 17.8275
1406.9570 53.1270
1408.9540 10.7916
1410.7350 4.6684
1411.7860 7.0289
1412.9680 54.7654
1414.0450 11.1830
1414.9090 57.4224
1415.7480 55.7915
1416.5500 54.1085
1417.7820 3.1701
1419.6500 29.9116
1422.9360 28.1301
1423.5570 46.8816
1424.9370 14.2749
1425.8870 37.1817
1427.2030 19.4393
1428.1380 57.7779
1428.7900 9.4966
1429.9560 48.9149
1431.7550 8.3217
1432.8880 115.3380
1434.0010 18.5141
1434.7090 29.5371
1435.7710 54.3222
1438.3680 21.7033
1441.1470 27.3897
1441.8670 13.3691
1443.1330 40.4136
1445.3770 16.7911
1448.0470 12.2926
1449.4500 55.5130
1450.7320 94.4384
1452.2150 43.7504
1453.1260 12.3507
1453.8190 33.3371
1455.9630 34.2195
1456.8820 23.6429
1458.9760 56.1726
1459.6240 14.8196
1461.9610 13.4853
1463.2050 21.6243
1464.2500 36.6968
1464.9210 12.2910
1466.4640 123.2420
1467.2440 132.4650
1468.0880 24.2724
1469.3770 40.2761
1470.9980 18.9380
1472.9220 29.1573
1473.7150 5.9981
1475.2440 82.1655
1476.2630 232.5250
1477.0830 109.8920
1477.7400 19.2921
1480.0330 93.8288
1481.1450 28.6022
1482.3950 39.4140
1483.1420 12.0957
1484.0200 24.3736
1484.8330 67.3671
1486.1000 48.0179
1487.8900 8.2164
1489.6210 26.4060
1491.2300 22.8846
1493.1560 68.5980
1493.9880 36.7682
1496.5180 20.2449
1498.6720 17.2076
1500.0620 37.4111
1501.1020 58.8666
1502.0210 73.4441
1502.7720 36.3109
1503.6470 45.8371
1505.1850 6.1495
1506.2420 43.3175
1507.3440 172.6130
1508.4040 91.6406
1509.3730 26.6348
1509.9930 29.0019
1511.4750 187.8400
1512.2650 87.5959
1513.8410 3.2316
1514.5880 51.0368
1515.8460 75.1825
1516.4690 30.8501
1518.0500 112.7200
1519.1000 55.1615
1520.1440 41.9901
1521.0030 11.1596
1522.8980 36.3457
1523.8490 44.3301
1524.9770 414.2930
1526.0460 365.5790
1526.9840 118.7190
1528.1990 37.1161
1529.1390 56.0573
1530.3570 55.5291
1531.9210 41.9858
1533.1570 9.0642
1533.8870 11.7443
1536.4620 86.6855
1537.4260 39.6851
1538.4110 81.5260
1539.4660 60.5498
1540.1210 14.8984
1541.3440 60.1287
1542.0830 19.6909
1545.1020 51.0792
1546.4630 78.4202
1547.3430 371.5500
1548.0940 38.0740
1550.1450 55.3811
1550.8240 20.9215
1551.9580 22.7228
1552.6210 14.7789
1554.9540 11.8018
1556.5890 52.0985
1557.5940 9.3555
1558.5660 20.3612
1560.0050 11.2340
1560.9990 22.3747
1562.1010 13.0593
1562.8650 14.8187
1565.0690 171.8950
1565.9030 132.0780
1566.7210 16.1991
1567.7240 5.4358
1569.9590 27.0645
1570.8580 29.7087
1573.2430 11.8737
1574.5470 42.2312
1575.1860 23.9086
1575.9980 29.5686
1577.1930 72.0256
1578.1440 17.8151
1579.5780 14.5762
1580.5990 22.9472
1583.0560 26.1622
1583.9490 4.8980
1585.5380 10.7228
1586.6340 18.3384
1591.1230 22.7692
1592.2370 9.7716
1592.9110 51.4114
1593.6510 3.3256
1594.5060 71.1074
1595.1940 35.7086
1596.2890 16.4700
1598.0470 8.9617
1600.5460 31.8590
1601.8670 66.4213
1603.2600 77.8646
1604.2100 30.5298
1604.8910 15.0219
1607.3350 20.5540
1610.1340 27.2283
1611.5420 36.6676
1612.1560 320.4280
1613.0730 311.2110
1614.0870 139.1360
1615.0570 37.9341
1615.6730 15.4766
1616.6220 9.9718
1617.9060 12.1445
1618.8740 35.6713
1620.6540 31.4555
1627.8740 12.6722
1629.0040 41.3576
1629.7350 129.7310
1631.0520 157.3910
1632.1720 141.5290
1633.0320 35.0174
1634.0750 28.8582
1635.3400 69.2049
1636.8030 15.7173
1637.7020 20.7432
1638.9500 29.5018
1641.9680 8.1749
1642.9040 57.1505
1644.0490 38.8232
1647.9720 11.2585
1648.9430 31.1865
1654.0270 11.8799
1659.4570 17.4458
1662.5460 39.2788
1664.0240 11.1435
1666.2000 25.0205
1668.8960 7.4599
1670.8770 103.5860
1671.6470 189.0490
1672.3410 1.8029
1673.0940 21.5257
1675.3170 7.2347
1675.9520 15.8374
1677.2380 9.0068
1678.9440 14.6216
1680.3510 261.2660
1681.1530 49.0813
1681.9410 16.7440
1688.8360 6.3308
1690.1760 7.5803
1690.9880 16.7987
1692.1540 67.4719
1693.2060 64.8857
1694.2900 43.7130
1699.6190 14.6556
1701.3070 58.6362
1702.9350 25.0099
1705.0360 8.1245
1707.0980 22.2942
1708.1620 19.2049
1708.9560 38.4003
1712.3770 14.9433
1715.1280 22.2802
1719.2070 28.9209
1720.0950 29.7073
1721.5600 38.3213
1723.2910 61.2794
1724.1120 5.4302
1725.1410 14.6630
1726.0360 11.9018
1727.0860 68.1643
1728.0440 427.7880
1728.8190 101.9230
1729.8130 26.3083
1730.8270 5.3383
1732.9980 18.5365
1734.2330 20.4312
1736.8670 206.3880
1737.9750 34.7261
1738.6430 16.5823
1740.1620 57.6581
1741.1340 42.8528
1742.3590 31.3407
1743.3240 24.9849
1744.2810 14.4895
1749.1030 3.9360
1749.7550 14.2910
1750.5090 11.7633
1752.0790 14.3126
1753.1080 8.4226
1756.0620 19.9109
1756.9750 15.5185
1758.0620 26.3936
1758.7920 12.0710
1760.8980 33.8530
1762.3180 24.1092
1775.2140 18.3684
1775.9450 4.2769
1778.2380 55.9349
1779.3560 110.1520
1780.2810 18.8390
1781.7210 16.6817
1783.4580 15.5895
1789.2000 7.2179
1792.9630 5.6202
1794.0750 46.2894
1795.7170 21.4542
1797.0100 29.1439
1798.2010 9.7474
1803.0410 29.2488
1803.9100 11.1301
1810.9330 38.7764
1819.9330 14.4704
1821.3230 55.3862
1822.2520 17.2576
1823.1670 5.8450
1825.2110 11.7781
1830.2950 16.7087
1831.9610 9.2258
1833.0390 8.6400
1836.2530 27.3522
1837.2030 19.5756
1839.2910 26.2223
1841.2910 9.8185
1845.1340 7.4728
1846.3780 6.4800
1847.3070 17.3974
1850.4540 7.6677
1851.2330 16.2606
1852.1930 17.1065
1853.4530 15.6440
1854.7740 20.8024
1856.2870 7.4422
1860.9910 19.7642
1862.2050 18.5009
1863.2090 18.0795
1866.6240 11.7029
1868.2710 46.2676
1869.1140 70.1387
1870.4000 30.9795
1871.2250 17.6365
1872.1270 12.2827
1876.1410 7.1174
1886.0520 8.4840
1886.9590 27.8238
1887.7570 6.6331
1889.1270 36.2890
1890.2370 15.9660
1892.0850 28.2836
1896.2530 11.0048
1899.8990 27.0550
1906.4170 14.5301
1907.3690 103.1330
1908.3260 53.5009
1909.2570 28.0718
1910.0940 30.6008
1927.3410 24.5642
1928.1380 26.4665
1933.9520 18.8401
1938.0700 3.1418
1939.2600 17.0506
1941.2940 13.2905
1943.3740 23.6040
1944.1450 20.2161
1948.2120 28.9453
1949.2410 5.5501
1951.2200 24.3764
1956.2890 28.3029
1958.3060 6.7137
1960.1950 36.1783
1961.2320 20.1343
1969.0670 17.6467
1972.4020 5.5845
1974.2110 32.9868
1975.0950 6.9076
1979.2110 5.6473
1984.9510 7.8002
1991.1310 20.8008
1992.5060 11.3409
1993.5470 27.6754
1999.5340 13.3697
END IONS
BEGIN IONS
TITLE=File220 Spectrum6338 scans: 8553
PEPMASS=754.7207 6407.0078
CHARGE=3+

197.0940 13.6293
215.1590 6.0627
220.3500 13.4165
221.5780 11.6117
223.1240 8.7840
224.1380 4.8594
226.2500 15.5187
227.1040 2.7420
229.1700 27.0774
230.0760 3.7266
232.0610 14.5904
232.8390 8.5137
234.0500 9.0837
235.1680 13.7836
236.1040 24.4931
237.1450 18.6252
241.1770 9.2307
243.2580 20.8947
244.0890 25.6146
245.1200 10.0992
246.1070 19.7599
247.0050 12.4125
248.2650 11.1383
250.3210 2.8249
252.0960 14.1217
252.9500 7.7340
254.1710 12.9241
256.0120 7.3380
257.0350 6.2177
258.1340 2.8291
262.4250 29.3013
263.1990 52.2526
264.2220 27.2494
265.1280 24.8356
266.2500 2.7697
269.1560 9.3416
270.0420 11.7961
271.1590 25.5541
272.0970 65.7572
273.1710 11.2769
276.0420 8.4467
278.1710 4.8095
279.4150 3.8421
280.2950 3.3644
281.2550 13.6732
282.0420 9.1266
284.1850 19.3805
285.1260 14.5492
286.1550 7.0346
287.1520 28.9427
288.0810 6.6525
290.0810 19.3162
294.1950 4.4416
295.2750 9.8284
296.0980 6.1331
297.1670 12.1095
298.0590 10.2613
299.0170 23.9216
300.1580 22.8214
301.1730 8.2467
302.2930 24.2734
303.1970 38.6073
306.0970 27.0243
307.1340 10.9304
310.1820 27.5145
311.5440 16.5511
312.2120 54.7394
313.2270 22.5580
314.1350 4.7843
315.1840 2.0697
316.1140 8.3384
318.3170 6.6618
319.2100 7.3968
320.9870 16.3982
323.0330 9.0099
325.2840 18.7009
326.8910 40.9716
328.2370 26.1548
329.0360 3.2530
330.2700 11.4290
331.0890 7.2733
332.1710 20.3215
333.3250 6.5313
334.1710 6.0518
336.1520 3.3735
338.1650 25.0758
339.2080 58.7513
340.3220 31.9903
341.3270 26.2949
342.1780 12.5796
343.2490 8.5629
345.0740 28.3815
346.2790 17.2110
347.1920 15.6676
348.3410 13.5692
349.2530 38.3249
351.2000 20.6251
352.0850 21.1478
353.1930 38.7741
354.2250 18.6770
355.1750 51.9456
356.2130 6.9139
357.3980 14.4909
359.3280 8.8326
360.1220 27.4554
361.2860 20.0223
362.2080 40.7311
363.1700 13.2108
364.1050 10.3931
365.1380 19.8471
366.4350 6.7663
367.1130 4.4004
368.1870 22.8979
369.4920 19.8555
370.3060 11.0645
371.2330 50.8358
373.1340 94.0335
373.8970 13.9754
377.0970 16.3806
378.1220 8.8762
379.1440 16.2711
380.2920 49.6558
381.5160 19.1156
382.6110 50.7985
383.2240 24.1436
385.1830 6.9022
387.2340 26.5671
388.3460 15.6693
389.2880 19.0640
390.0630 8.4214
391.0890 17.3165
392.1960 37.9784
393.2340 20.3501
394.1770 59.8098
396.2200 7.5514
397.1000 70.6185
398.3910 6.8416
399.3520 30.0198
400.2990 26.2340
401.1680 32.7992
402.1950 19.1944
403.9730 15.3330
405.3410 9.0572
407.2250 70.8051
408.2410 12.6195
409.1620 23.5745
410.2430 28.7893
411.2680 21.1703
413.2220 22.9169
414.3130 61.2436
415.4580 25.0368
416.1650 11.7423
417.1480 5.8534
418.1730 27.7103
419.1670 3.7290
421.1960 6.9065
422.2980 8.3703
423.3710 5.1318
424.2900 67.6720
425.2360 70.3432
427.3540 15.7042
428.2500 17.1089
429.3050 46.6967
430.5580 33.3939
433.5040 16.8689
434.2970 31.6703
436.6200 32.3995
437.3120 43.0552
438.3930 26.9383
439.3630 8.7870
440.1760 6.8147
441.2830 21.1191
442.3510 131.3000
443.3000 59.8679
444.2300 38.4371
445.1750 17.8722
446.5080 16.8406
447.3390 22.6170
448.5900 23.1485
449.2650 23.6756
450.2550 36.4297
451.0990 24.9344
452.2500 23.0639
453.3190 5.6254
454.2980 9.7571
455.2780 44.2180
456.2800 17.4605
457.4550 25.6166
458.2900 31.1228
459.3910 55.2294
460.4640 41.9675
462.2110 20.8776
463.2620 33.2069
464.1990 17.2929
465.3190 95.2479
466.3930 51.3796
467.3710 82.5279
468.1560 8.2298
469.1760 19.0787
470.1610 57.0781
471.3380 24.6888
472.6340 58.7371
473.3130 37.5989
474.0250 13.0696
474.9030 29.3784
477.2930 36.3114
478.3750 14.6356
479.2440 23.9983
480.1700 9.9157
481.2120 69.7392
482.4390 26.6890
483.2420 52.7531
484.3570 57.5376
485.1370 4.6141
486.2020 19.0879
487.2280 59.6373
488.3470 48.6568
489.1580 19.6454
490.2520 35.6389
491.2090 17.2294
492.3640 41.8615
493.3870 17.4947
494.3390 52.0016
495.2420 44.9304
496.0900 46.9029
497.0840 47.3495
498.4130 85.3914
499.5280 75.0567
500.7140 36.7877
502.1270 30.1553
503.3400 31.0407
504.3090 54.6461
505.2210 46.6737
506.9240 26.0899
508.3520 40.2280
509.3660 88.3929
510.3200 35.4972
511.3210 55.0900
512.5190 96.5886
513.2410 85.6469
514.5960 71.9327
515.3010 16.7438
516.2420 20.9294
517.3790 39.0835
518.1980 7.6378
519.2480 45.4097
520.8110 69.3523
521.8460 34.1857
522.4990 11.2533
523.2110 28.9106
524.3070 27.2086
525.2680 49.5262
526.4350 37.0633
527.2960 55.6090
528.2750 25.5900
529.2600 80.1852
530.2970 44.2627
531.2360 21.3257
532.8070 53.9967
534.0940 76.7469
535.1760 51.8070
536.6890 27.2312
537.3330 89.9451
538.1830 75.5829
539.3330 56.5684
540.4180 46.8071
541.4720 11.1163
542.2080 40.1312
543.5010 59.3478
544.2750 26.4079
545.2390 94.4781
546.7850 91.0445
547.6060 10.0782
548.2610 27.2701
549.1210 36.2461
550.3340 22.2104
551.5270 100.8510
552.2740 24.6728
553.3910 45.5664
554.4150 36.2355
555.2450 54.8584
556.1460 42.2980
556.9680 25.5680
558.3000 20.2422
559.4420 66.4856
560.4170 82.4722
561.3290 28.7654
562.1110 48.1903
563.3600 83.2916
564.6720 27.1957
565.5720 35.2160
566.5120 22.1937
567.4630 31.8715
568.5470 47.2257
569.2250 79.2598
570.1020 7.2433
571.0480 53.7362
572.2880 30.4887
574.2830 65.6880
574.9590 29.7710
577.2230 4.9149
578.1190 11.5089
578.9400 89.7572
580.4740 55.8223
581.4660 87.0610
582.5230 109.8710
583.2760 64.1056
584.2220 105.6590
585.3970 123.1570
586.3610 23.0698
587.2030 55.8809
588.6560 65.1994
589.3350 7.7818
590.0080 37.6391
591.1560 134.0570
591.9110 57.1422
593.3430 31.4651
594.4330 26.4173
595.4270 80.6038
596.7960 54.2272
597.5330 47.1182
598.4480 43.5457
599.3150 83.4977
600.6200 43.7617
601.4870 82.7025
602.7940 22.3427
603.5610 64.0745
604.2760 78.3854
605.5340 68.9884
606.3580 57.1134
607.3540 71.6455
608.4500 125.7680
609.4670 64.7679
610.4930 82.9758
611.4730 81.1339
612.4750 105.5130
613.5410 154.4840
614.4980 76.3478
615.2140 39.3915
616.2230 31.8780
617.2390 18.1409
618.3950 64.8599
619.2600 10.9487
620.3210 125.9210
621.3880 23.1275
622.2790 32.4657
623.2890 69.0106
624.1790 76.4279
625.2280 77.5663
626.3720 41.9382
627.3490 49.9204
628.3470 29.4930
629.4040 5.0302
630.3450 58.0238
631.6470 83.5295
632.4190 36.6014
633.2030 67.1897
634.5210 106.8370
635.6670 65.5189
637.3690 83.3753
638.3100 59.2987
639.5340 115.7340
640.7030 249.7620
641.4850 230.1910
642.3420 59.1677
643.1600 24.4255
644.6180 71.9973
645.4190 59.4403
646.5510 164.3300
647.7750 139.6160
649.0960 114.1190
650.2170 203.3180
650.8610 44.7247
652.0870 106.6140
653.0250 113.8570
654.4170 80.4624
655.2560 41.7378
656.2350 87.0986
657.5600 160.3780
658.4940 173.8260
659.5000 78.8650
661.3280 97.8023
662.4490 248.0640
663.6230 148.6830
664.4030 51.1305
665.3110 126.6620
666.3920 157.0900
667.3930 87.7354
668.2570 101.1780
669.2720 178.2090
670.5630 69.7215
671.3080 33.2963
672.4210 147.5510
673.4990 59.4611
674.3200 46.6441
675.4360 57.1585
676.6960 87.6579
678.0760 64.0043
679.0640 134.0940
679.6920 7.6995
680.3230 39.8461
681.8800 85.8049
683.0280 125.0790
683.8960 83.6861
685.0540 82.6718
686.0950 80.4915
687.3900 149.0540
688.7360 140.8190
689.4720 190.8150
690.4630 121.9530
691.3870 144.6810
692.6530 139.9660
693.5940 133.6250
694.5430 168.1170
695.4000 320.8390
696.3510 74.1706
697.1990 63.6193
698.0840 188.1310
699.0960 77.9529
700.6380 552.5740
701.4570 329.4150
702.4300 148.3630
703.4270 139.4020
704.3860 112.6170
705.3060 103.9360
706.0440 64.3184
707.7470 230.1950
708.6220 75.1919
709.4000 117.2560
710.4150 327.2150
711.4150 202.0050
712.4440 112.8640
713.4120 93.6692
714.5930 29.4431
715.4400 72.1091
716.4980 42.2622
717.4950 183.6770
718.7190 251.3230
719.5320 202.5180
720.3670 159.9170
721.5290 141.4460
722.6880 72.1739
723.6900 262.6120
724.6520 379.2130
725.6190 173.7880
726.4900 188.1080
727.3880 339.3830
728.6620 214.6750
729.7470 310.4660
730.8280 162.9880
732.2720 159.4010
733.3470 400.0110
734.2320 529.4290
735.1210 153.2130
736.5860 1200.6400
737.3800 1431.1500
738.2670 378.0210
739.4100 289.2090
740.3280 91.8139
742.6350 1229.6600
743.5330 88.8246
744.6510 198.1720
745.8130 763.0380
746.7390 138.8290
747.8520 144.6950
754.4670 176.3840
755.5260 128.1020
756.4110 33.3165
758.1710 6.4562
759.6800 27.4936
761.3440 17.5984
762.5260 10.9302
763.5320 26.9285
765.5130 24.6073
767.1380 61.6887
768.2480 40.1852
768.9840 10.2470
771.2770 46.3411
772.4140 34.2123
773.4700 28.1486
774.5780 56.5104
776.5070 15.3829
777.4390 20.9111
778.3390 21.0819
779.0070 19.2276
780.0320 32.1491
781.1030 71.6911
782.1710 93.3178
782.7950 15.6409
783.7800 15.1143
784.6890 12.8072
785.7160 31.2277
787.7590 12.2534
788.7680 16.0502
790.0020 33.7841
791.6510 47.6664
793.4260 29.7241
794.3660 38.3262
795.2850 14.0250
796.1270 25.0951
797.3720 10.0287
798.0900 22.3578
799.4650 38.5677
800.2290 21.4465
801.0550 39.8576
802.1120 48.4849
803.3340 6.2097
804.3980 29.5177
805.0790 51.4334
806.3410 61.7243
807.6110 355.3660
808.5540 202.6130
810.3420 95.3817
811.1480 87.6350
812.8850 54.5049
813.5810 49.2182
814.7060 123.9150
815.9300 64.9162
816.6930 16.5483
817.4980 65.0124
818.4040 12.2186
819.3670 28.2630
820.2920 21.3896
821.4060 94.1982
822.8420 44.2367
823.4890 25.1567
824.4450 75.5811
825.4280 23.2367
826.2740 21.6066
827.8930 32.5679
828.9430 58.4856
829.7470 42.1729
830.6980 69.9600
831.5000 42.9870
832.4870 21.8051
833.4370 57.7987
834.4450 103.6510
835.2950 41.4244
836.4420 48.0446
837.7390 47.9378
838.5030 23.7502
839.6320 73.8133
840.5150 33.6539
842.1190 57.7331
843.9780 64.1504
844.7850 13.4579
845.5590 43.4043
846.5820 26.9120
847.2290 53.2742
848.5590 33.4087
849.3580 20.0486
850.2920 12.0797
850.9520 21.6452
852.7690 47.1188
853.4400 75.0446
854.3390 11.8403
855.1530 8.6914
856.1190 79.5883
858.2480 438.6110
859.2060 195.9950
860.1570 98.2383
861.3930 42.7034
862.6080 65.5200
864.8390 97.9989
865.7810 115.4910
866.9870 41.3835
867.9610 123.6470
869.2570 24.3182
870.2010 39.2242
870.9460 16.0248
871.7660 31.8733
872.5360 82.9449
873.4590 51.3319
874.4030 47.4459
875.4440 22.0157
876.4200 38.0209
877.2820 25.9662
878.2990 64.6980
879.9120 96.1320
881.1150 52.1711
882.7080 85.3443
883.7030 229.9590
884.4730 42.1352
885.5620 131.4380
886.5930 95.7850
888.6120 103.2210
889.6190 51.7739
890.9190 21.8356
891.5890 44.4576
892.5540 73.1541
893.3890 52.8469
894.7490 93.4121
895.7230 104.8340
897.2830 47.9785
898.3940 7.1369
899.2690 35.0049
900.8490 55.5088
901.8120 861.8800
902.7110 113.2450
903.8130 36.2697
904.5940 50.0742
905.1950 65.6033
906.2860 50.5744
907.2690 121.5740
908.3480 28.0529
909.5730 53.2094
910.6480 134.0060
911.5050 49.3149
912.3910 48.3521
913.8160 18.7810
914.4390 12.2367
915.9490 50.0040
917.1050 60.6632
917.8650 12.7617
918.6060 6.4662
919.7200 20.3516
920.7160 14.8976
921.7760 63.7942
922.7130 70.6144
923.9610 77.2578
924.7030 51.0205
925.6990 14.0732
926.4590 113.6780
927.2700 102.3780
928.2860 42.1652
929.5150 99.2940
930.5030 42.0612
931.8290 16.4148
932.7940 47.1034
933.4950 17.5237
934.3540 40.8257
935.7180 117.4950
936.9160 82.8096
938.4730 18.1422
939.3600 18.2496
941.6350 22.2593
942.4260 40.6713
943.6120 112.4200
945.2790 702.0830
946.0610 302.7820
946.7440 82.0885
947.6850 66.3946
948.6000 37.9214
949.4820 30.1456
950.5800 71.5049
951.2810 21.8806
951.9040 19.7961
953.1290 31.5927
954.4870 34.3766
955.7760 45.1748
956.7080 22.6347
958.0030 44.1926
958.6510 37.1707
959.4680 25.4074
960.3770 6.4193
961.5910 190.0690
963.4290 51.7138
964.3490 7.5103
965.5670 25.7002
966.4000 33.8890
967.5240 15.1923
968.4290 56.5824
969.1100 19.3371
970.5040 14.8298
971.7730 31.3366
972.9520 29.8075
973.6960 6.1973
975.0880 57.8754
976.2680 20.7458
977.4800 100.9450
978.2800 54.0786
979.4810 113.7580
980.4520 6.9322
981.4120 33.5564
982.2610 45.1089
983.4050 63.2202
984.4180 80.7879
985.6370 26.2074
986.8240 91.8456
987.9850 90.8681
988.8360 31.4567
989.7310 25.1323
990.7190 37.5410
991.4320 17.2662
992.6020 48.1757
994.2160 129.9490
995.7760 883.8720
996.5780 377.9810
997.6020 37.8373
998.8460 11.1627
999.5220 12.6315
1000.5970 163.5780
1001.7070 83.7016
1002.7360 58.8364
1003.3580 8.3548
1004.7370 11.5437
1005.5590 80.0676
1006.5160 25.2116
1007.6940 5.9110
1008.8400 78.6474
1009.7110 97.6521
1010.8740 55.0193
1011.7630 38.7788
1012.9050 45.7635
1014.2880 53.1461
1015.2530 15.3853
1015.9620 19.6123
1016.7280 50.9262
1017.3700 73.8276
1018.4080 111.7870
1020.6760 35.6262
1021.9860 19.8858
1022.6840 17.9166
1023.7230 46.4870
1024.9750 62.8428
1025.9770 19.2893
1027.3430 49.2902
1028.5920 10.4504
1029.6870 40.4403
1031.3880 34.4035
1032.1590 20.6782
1034.5290 14.1000
1035.5370 47.3688
1037.0790 78.1443
1038.6730 27.2166
1039.8930 46.5734
1040.5340 21.9283
1041.3180 9.4121
1042.4810 70.0956
1043.2450 41.0391
1044.1120 28.6319
1045.2580 40.2173
1046.0640 41.5255
1047.0740 54.8277
1047.7500 34.1195
1048.5290 24.1409
1050.1610 84.3031
1051.7940 107.8710
1052.7800 13.3868
1053.7850 39.7519
1054.6780 11.6907
1055.5890 4.1752
1056.6550 7.1331
1057.7230 55.1086
1058.4820 98.8019
1059.1130 22.6901
1060.3810 339.5350
1061.3750 72.4244
1062.3830 19.3778
1063.9940 30.0128
1065.6880 10.7475
1067.8300 18.1577
1070.2660 14.2220
1072.3530 25.2952
1073.5250 45.7332
1074.8130 13.8100
1075.8030 17.0751
1079.5820 42.9651
1080.9700 39.5205
1083.8260 11.9113
1084.7120 6.7680
1086.6360 24.3777
1088.5190 16.0110
1089.3190 17.1524
1092.5700 23.7189
1093.2740 23.1787
1093.8750 22.6089
1094.6410 6.3866
1095.4680 4.5350
1096.1770 23.9687
1098.7320 13.7368
1099.4660 9.9984
1100.4580 12.1307
1102.6310 3.3270
1103.8890 49.5091
1105.6890 39.6187
1106.6500 13.0723
1107.6410 23.8387
1108.6370 26.7269
1110.6120 6.9463
1112.4870 11.9907
1113.6400 29.7072
1115.6310 9.4246
1116.7670 11.5670
1118.7290 13.4229
1120.6660 26.7495
1121.6500 7.7369
1122.6630 11.4856
1123.5530 33.0299
1124.5290 12.2218
1125.8280 4.4499
1126.5000 13.4063
1127.6190 6.2743
1128.6240 12.8700
1129.6910 28.8622
1130.8840 13.4005
1131.6740 27.9484
1133.6750 14.1875
1135.5760 11.9959
1136.7950 11.4122
1137.5870 24.6393
1138.6470 76.2313
1139.7020 12.3824
1142.8860 7.2136
1144.7780 16.8662
1146.7280 8.6541
1147.7050 76.7699
1148.5960 49.2896
1150.3600 56.0969
1151.6900 4.4835
1153.8170 9.8094
1154.8440 17.0256
1156.6820 18.0433
1160.6340 9.6947
1161.5510 7.5791
1163.8260 19.5959
1164.7960 4.9886
1167.5680 33.3524
1168.8000 16.7810
1170.5980 50.3856
1171.7360 17.4610
1172.3680 11.3087
1173.6230 15.4968
1174.7820 21.0709
1175.5580 3.2733
1178.6640 29.5043
1179.4670 2.1151
1181.1400 37.9080
1183.7890 16.0191
1186.6380 47.6703
1187.8760 12.7888
1188.4850 22.8470
1189.6390 3.5978
1190.7280 6.9237
1192.8210 6.0301
1193.7230 7.6102
1194.6590 28.9105
1195.7080 15.7086
1196.4560 15.2632
1197.9680 11.9107
1199.8030 15.9466
1200.7810 11.4278
1201.5350 9.8965
1202.7970 4.9789
1205.7510 11.3887
1207.5480 11.8674
1208.6460 3.6178
1210.5000 5.9394
1211.8090 8.4650
1214.7020 6.4153
1215.7170 18.7944
1216.7630 8.2959
1220.8710 7.8550
1221.6230 4.0688
1223.4410 8.1208
1224.7760 20.4449
1225.6470 26.1955
1226.8380 30.2451
1227.7020 3.9133
1229.6770 12.9402
1230.7420 17.2387
1231.8080 18.1554
1232.4890 12.4079
1234.6210 21.0440
1235.8660 11.0742
1237.6160 13.6092
1238.7430 4.1291
1241.9430 10.4035
1243.3010 15.9215
1246.5160 45.0636
1247.5340 67.5060
1248.8130 56.7343
1249.8110 23.3931
1250.5510 6.5926
1256.6350 16.0721
1257.7860 9.4567
1258.5350 19.5833
1260.7120 7.7371
1263.0350 32.1737
1263.7720 45.1333
1264.6800 15.3899
1265.7140 5.6420
1266.7250 14.3227
1268.8010 3.9657
1271.7590 19.7154
1273.0410 31.7918
1273.8580 6.6314
1275.6860 6.1200
1277.6850 4.3787
1280.0520 47.2047
1281.0170 12.2164
1281.9580 17.2593
1285.6950 7.6208
1286.7740 24.6422
1291.6480 12.6005
1295.5950 13.3686
1296.6850 27.4615
1297.5810 54.0377
1299.0280 16.0631
1302.9390 5.0435
1304.7040 9.3703
1310.6940 12.3725
1315.5980 6.8371
1316.5300 28.7713
1317.7020 19.2024
1321.5750 24.8994
1323.8420 26.7755
1324.7680 14.4849
1326.8070 3.7810
1334.5620 6.8016
1335.5390 28.5718
1338.2820 48.2237
1343.6940 10.0560
1345.6190 12.0730
1346.8090 2.8256
1348.9670 5.6720
1353.7170 13.7990
1358.6070 6.8637
1360.9650 15.4316
1361.8880 6.0345
1363.6200 4.5022
1368.9190 15.3365
1369.6960 22.7684
1376.8910 15.3622
1377.7000 10.4055
1385.8120 23.5400
1386.4830 26.9936
1387.4490 12.9085
1392.5760 11.5633
1394.9500 11.1514
1400.9350 30.2016
1406.7110 11.5555
1439.1200 25.3381
1451.0030 9.4541
1454.8770 4.2016
1459.9510 10.6829
1462.5330 8.4350
1464.7870 9.2512
1492.9620 21.3487
1496.0530 19.6827
1500.8020 9.6219
1528.8750 11.3908
1531.0350 29.7509
1590.6360 6.4841
1591.4640 6.1273
1650.9570 18.8484
1668.2160 14.8158
END IONS

BEGIN IONS
TITLE=File220 Spectrum7070 scans: 9454
PEPMASS=898.3124 13908.3203
CHARGE=4+

254.1790 11.0212
257.6940 12.0921
259.1030 10.2618
270.2740 10.1293
272.0960 7.2347
289.4260 30.7386
290.2520 9.3878
305.1730 3.2396
306.2670 11.0457
308.0860 11.5341
311.1700 8.7039
312.8620 7.0025
315.1440 3.2950
317.6090 12.7224
319.0520 5.5709
323.0960 7.1144
325.0950 4.0573
327.2540 8.7188
330.8310 8.8590
333.1280 10.9314
334.3470 7.5662
335.3920 6.9165
338.0070 5.6026
339.0420 7.6735
341.1860 8.7047
346.2960 7.5004
350.3770 9.7229
352.4340 6.4634
355.4850 4.3256
356.2820 13.1909
361.0980 5.6837
362.1700 6.6539
363.3810 7.1927
364.3440 28.0863
369.1010 16.4993
370.0330 14.4912
371.3070 11.6551
372.8590 8.1622
373.7270 9.7921
379.2100 22.5498
381.9180 9.6807
384.1820 9.4446
385.2060 3.2076
389.2820 4.0437
393.1140 11.3356
396.2760 8.6064
397.2160 8.6854
403.2770 16.5498
405.0720 14.3832
406.3040 16.2139
410.2760 6.5230
411.3000 33.5415
413.3600 22.0604
416.7590 31.6470
417.4230 7.5976
418.3000 9.5623
423.2040 5.4803
425.0820 16.7962
426.2590 11.3056
430.0360 4.6061
431.0900 3.2062
432.2840 23.9525
437.0510 11.1841
438.1870 3.4638
439.2840 17.0641
440.0240 4.3568
442.0020 35.1688
442.9940 37.9142
444.4570 56.4017
446.2080 34.6153
447.2690 14.4855
448.4360 12.5362
452.9320 28.4445
455.3700 10.1040
459.1170 9.9586
463.1350 9.2159
464.7080 55.2932
469.4790 16.1935
470.1870 7.6880
471.2420 23.7368
472.0390 51.5486
472.8280 7.2923
474.4700 17.9475
476.0600 15.8435
479.3150 8.7441
480.3850 29.4038
481.2760 9.1739
482.2530 12.2445
484.6060 47.9312
485.4950 78.7167
486.1770 8.2141
486.8460 22.9876
488.5600 3.5054
489.3490 25.0689
491.7850 40.9585
493.5550 16.5007
495.2310 22.1023
496.5390 3.5003
497.2880 39.6688
499.6280 78.0408
502.4260 21.8283
503.2750 5.8998
504.0320 12.3915
506.6490 5.8656
509.7700 15.7397
515.8480 33.4048
516.9670 64.1948
518.1930 8.0514
520.5440 106.5740
524.7860 29.4405
526.9800 124.4780
527.8920 81.1723
528.6140 36.8677
529.9400 40.0837
534.5570 5.4246
535.2060 20.8589
538.1890 9.1760
540.1570 13.0271
541.0970 6.2875
542.3270 43.2057
543.1910 7.3957
544.1380 4.3115
546.1910 6.5823
547.0670 44.1493
548.1480 216.1650
548.9280 120.7510
550.7480 7.8867
551.6430 37.9048
552.4990 14.2924
554.5870 346.3710
555.4910 128.3120
556.2840 5.2690
557.4450 41.3236
558.8690 24.9052
560.1720 62.1237
561.0910 31.3878
562.8040 50.4356
563.5680 15.9803
564.2990 17.6762
565.2530 34.2821
566.4420 15.9959
568.4920 14.9570
571.6250 60.2238
574.0970 21.3322
575.2260 119.5260
576.1880 208.9430
578.2220 7.3331
579.4650 14.4148
580.4840 111.7630
581.2010 6.0947
582.5000 160.4660
583.1120 154.1410
583.8980 54.6580
587.0050 76.4310
588.0350 10.8090
589.1320 233.6960
589.8950 42.9912
590.6200 24.3640
591.4210 88.8862
592.0660 19.2724
593.5840 19.9042
595.2340 24.2873
597.2030 37.3028
597.8580 55.4039
599.8750 80.7515
602.3240 11.5478
603.8270 94.9417
605.0130 74.9490
606.8250 38.5463
607.9160 123.0590
608.7720 25.3755
610.2920 306.7280
611.2850 7.1986
614.6750 41.7762
615.2810 48.0303
616.9730 215.5270
618.0090 89.6072
620.1090 8.0425
621.3220 66.1248
622.2620 3.3032
623.5030 34.5761
624.9160 114.0380
625.6460 37.0011
627.0750 33.1749
628.0730 62.5547
629.1580 93.1561
630.6860 71.9359
631.3760 34.4133
632.0380 80.9000
633.3080 4.0567
635.2110 85.1309
637.8190 379.0640
638.6350 147.1700
639.2980 35.3943
640.5690 8.5762
641.2570 7.0314
642.0480 185.5010
642.8960 32.7001
643.6250 29.9930
644.6450 223.9350
645.2770 140.2000
646.8270 41.2478
648.1050 29.2824
649.4880 91.1632
651.0720 159.6940
651.8160 66.2443
653.8050 31.9656
654.4310 29.9263
658.1370 19.2702
659.5310 203.3190
660.1990 38.9757
662.4830 106.1870
663.1380 9.3918
663.8600 31.7144
665.3670 175.4710
666.2260 371.7180
667.5690 60.0395
668.4040 43.0872
669.1350 16.9808
670.2230 39.6995
670.9660 28.4918
672.6200 532.9100
673.5180 103.0340
674.4600 28.3200
676.3330 84.2297
677.3550 21.7176
678.3930 22.9002
679.2740 132.2420
680.6920 134.5120
681.4290 96.8442
683.4110 27.7234
685.9480 71.8777
687.4960 37.5818
689.2630 103.9650
690.4870 73.2828
691.8910 46.8027
693.8840 275.3510
694.5510 7.6129
696.1930 42.5863
697.6720 4.7598
698.4430 10.9886
700.1450 753.0680
700.7840 89.2752
702.0940 260.5870
702.9930 112.7680
705.6940 23.3213
706.7040 235.1310
707.5570 166.8930
708.2110 49.9889
709.3980 26.2742
710.2320 26.1957
712.6460 23.4962
714.3560 39.1165
715.1350 86.8646
716.4100 32.3205
718.0530 27.0191
719.5740 82.4020
720.7500 40.9221
721.5640 330.8360
722.8330 284.0320
723.9040 320.2150
724.8840 53.8821
725.9050 44.0205
726.7270 17.1146
728.0990 684.5510
728.8320 119.7430
730.2230 10.7712
732.1900 34.0649
733.1130 85.9494
734.4110 30.2297
735.5740 32.5451
736.3690 29.6386
737.8890 60.1024
739.4750 43.9595
740.3570 46.7580
742.5380 20.0983
744.6410 232.5650
745.2730 36.2172
746.5040 19.2780
747.1110 3.7373
748.0290 27.6989
748.8360 112.7890
749.6490 120.4900
750.7850 79.4947
751.5800 7.3390
752.3660 15.2709
753.2110 42.9865
755.6820 162.4790
756.7110 132.9740
757.3440 82.5887
758.2530 46.8688
759.4850 43.7246
760.3190 3.6850
761.3300 8.5413
762.3940 33.0960
763.0520 42.4669
764.3670 29.1079
765.1740 116.5220
765.9150 327.2630
766.6370 62.8626
767.4160 17.1321
768.5520 30.5446
770.5740 122.1150
772.1900 3.6435
774.5600 79.2187
775.4490 29.7389
776.9780 228.3540
777.8570 3.5072
779.2920 11.5910
780.1700 36.0808
781.6050 10.1267
783.5610 61.8752
784.6460 69.0495
785.5810 28.1063
787.1810 1058.4700
787.9950 75.0286
789.0490 7.9718
789.9090 14.8374
791.5180 128.6260
792.2730 194.9100
793.6240 38.6726
794.4540 27.9952
795.2050 5.3092
797.2040 3.5448
798.4810 55.3100
800.6870 6.2271
801.7980 131.1010
803.3570 9.4559
804.5120 68.6065
805.7240 59.4036
808.4370 548.1200
809.1980 53.7634
809.8680 42.0047
810.6890 15.1578
811.5980 8.9016
813.2320 49.3869
814.8310 71.4966
816.4130 56.8693
817.3130 11.2581
818.1050 25.5189
818.9900 93.2172
821.6380 3.9048
822.9780 98.9362
824.2620 47.8701
825.3360 24.0690
826.5710 63.0517
827.3790 11.7224
829.4750 597.3100
830.1800 379.1250
830.9200 61.7783
833.2820 26.3014
834.0810 144.1520
836.3110 14.6878
837.6420 3.7651
838.5410 24.1990
839.6170 122.5050
842.5240 41.0480
844.9000 12.7881
845.6850 19.7537
846.5160 26.3250
847.5270 30.3657
848.8580 18.2924
850.0040 131.3690
850.9100 1143.5400
851.6190 271.0770
852.5790 37.4677
853.4840 64.6275
854.3140 138.3110
855.3270 282.1000
856.1830 66.3469
857.6880 86.8761
858.6810 74.5428
859.6770 97.8043
860.9190 62.6045
861.8660 101.9370
862.9860 114.7000
864.3560 154.9990
865.3960 89.5623
866.3750 174.2970
867.7000 143.1450
868.3730 103.3180
869.1190 99.5802
870.1920 70.1089
871.0700 49.0697
872.1440 4951.4700
872.9190 691.8140
874.2330 31.8287
875.3730 111.6430
876.6610 2012.7400
877.5990 79.5247
878.4200 25.4899
879.7970 91.4509
880.5300 447.7930
881.3870 168.7840
882.7410 123.8260
883.5510 49.8866
884.3410 83.3081
885.1150 16.1479
886.5050 126.8260
887.1600 67.6438
888.6340 325.3580
889.6760 203.2380
890.3340 20.1070
891.5200 33.7599
893.4540 4.3232
897.5810 52.4791
898.4600 45.6759
899.1070 61.0639
903.3530 62.9208
905.8380 33.8221
907.7680 58.6527
908.6250 9.8890
910.6860 20.9834
911.3990 13.4340
912.0750 51.6366
913.4500 6.7758
915.7940 57.3827
917.0650 19.8327
918.3850 8.3090
919.5110 14.5525
920.4260 46.1980
921.4620 108.4460
922.4290 80.3322
923.4450 20.5333
924.2730 14.4025
929.6200 6.8446
931.2270 23.0559
934.1740 5.0148
935.5390 6.4170
936.5480 38.1213
937.5530 15.2669
940.8200 57.0674
942.5310 6.1684
945.7810 98.0583
948.2700 13.9766
949.6180 6.2162
950.5170 22.5148
951.9660 4.4684
952.9210 57.3803
954.6320 5.5156
955.6510 15.2690
957.2190 9.1646
958.6840 26.3108
961.5370 9.4068
962.5290 23.7836
964.5580 37.4819
965.2030 9.7592
966.8520 25.1389
969.3040 77.8009
970.5460 16.0549
972.2690 36.4504
973.0730 30.1089
973.6990 5.8051
974.6160 14.9261
975.8080 91.4653
977.1360 15.9770
980.8640 13.7612
983.3790 57.7378
984.5180 79.2511
987.0430 2.4816
988.2030 125.7030
989.7020 32.1425
990.3680 32.0464
991.5260 12.6473
992.7640 25.3661
994.1550 12.9137
995.4100 4.0871
996.5970 9.1363
997.6190 26.4768
999.6520 42.1802
1000.6260 2.0329
1001.4190 63.3036
1002.2860 57.9937
1003.2730 64.0648
1004.5680 26.3216
1008.7530 76.2937
1009.6030 74.0262
1011.5100 9.9473
1012.1150 30.0462
1012.9010 24.5989
1013.7050 27.7924
1015.2540 45.5996
1017.1880 29.1153
1018.2920 59.2436
1020.3440 201.2970
1021.2310 79.5597
1021.8870 15.6568
1022.4950 36.5509
1025.8770 14.5118
1026.5730 8.4381
1028.3810 45.5749
1031.5740 9.3539
1034.5480 46.9196
1035.4740 27.1029
1038.0430 36.4437
1038.8720 51.7219
1039.9500 11.7174
1041.7130 30.2276
1045.7800 24.3683
1046.8000 52.4349
1048.9020 30.8384
1049.7120 5.2660
1050.6320 81.0572
1052.0410 64.5561
1052.7580 22.8541
1053.6800 8.8498
1054.9950 11.1124
1056.8250 59.7292
1057.7840 20.1188
1058.6000 7.8375
1059.2890 16.7202
1060.5310 32.9664
1061.4380 64.9603
1066.8350 22.9764
1068.5940 53.3600
1069.7920 142.3940
1070.8250 45.6523
1073.5120 73.8068
1075.5640 12.8402
1076.5400 7.8864
1077.5790 32.1469
1080.9560 48.3350
1083.8210 11.9247
1085.9210 26.9083
1086.8650 17.2615
1089.6670 11.8799
1090.8160 12.1914
1092.1350 41.4787
1093.2010 9.8324
1094.1940 29.2431
1095.2850 17.5113
1096.6410 36.0356
1097.6610 146.1430
1098.4340 123.7620
1099.1530 30.6264
1102.6450 2.8453
1104.0270 49.6341
1105.4530 16.9160
1107.0280 18.8876
1107.6830 13.2980
1108.6040 25.9477
1111.5910 37.7555
1118.0870 13.3628
1119.5170 117.9560
1120.5650 40.1501
1121.8740 8.7877
1122.9420 31.7220
1123.6410 33.4188
1124.9060 16.4346
1126.1070 142.5040
1127.1580 78.9505
1127.7940 51.4572
1128.7060 16.0099
1130.2480 81.5648
1132.4610 29.3138
1134.1270 28.7186
1135.8920 5.3932
1136.5950 8.3522
1137.2520 12.1240
1139.6510 35.1490
1141.7060 9.9637
1142.5970 14.1795
1149.7880 12.5860
1150.5010 43.8128
1152.2840 15.0822
1152.8980 12.9534
1153.6980 44.1807
1154.3000 2.2445
1154.9030 14.4814
1158.6220 57.1509
1159.7120 54.6775
1160.4680 12.1005
1167.6490 41.3510
1172.6410 22.1502
1173.6430 16.4030
1176.4460 18.9017
1183.9590 32.5865
1186.9500 10.2804
1189.8290 6.5347
1195.0440 46.3980
1195.7010 21.4770
1200.5860 4.8221
1201.8690 41.1184
1202.5310 12.7756
1206.0100 40.4569
1207.7950 14.2245
1208.5410 29.6027
1209.5330 17.3740
1214.3680 8.6678
1215.2920 27.8537
1219.9010 40.3483
1220.6740 43.9217
1221.5140 52.3147
1222.5340 28.4846
1225.0350 36.4981
1225.6570 19.8797
1226.7890 10.3369
1230.3750 19.9331
1231.4320 10.5954
1232.4390 31.1052
1233.2920 9.2004
1234.7060 5.1490
1235.6090 19.1953
1236.8710 29.2862
1237.7920 12.9405
1239.0680 43.6082
1239.6880 7.8510
1240.4730 15.3530
1242.5150 4.5412
1243.9440 14.5185
1250.4820 32.2846
1251.7060 7.5529
1252.4230 13.3180
1254.3180 31.0488
1257.3710 26.4866
1258.9630 18.6315
1260.0260 23.1253
1261.5320 13.0502
1262.7060 12.6721
1263.8160 13.9085
1264.6490 28.3277
1267.1260 11.2033
1272.6170 27.6485
1273.6280 24.2067
1281.5360 15.7636
1282.7370 21.5409
1285.0960 38.8732
1291.8830 3.2830
1293.6150 18.6192
1294.3750 21.9482
1295.6150 15.7652
1297.7060 22.4406
1299.6630 3.8906
1300.2880 16.8554
1308.6180 23.3019
1309.8250 41.6199
1312.3950 6.9829
1315.5670 25.2934
1316.6090 26.5239
1317.9910 20.2341
1319.6320 13.8002
1325.6440 19.4252
1328.1240 14.1125
1342.7170 5.3559
1348.3720 5.0205
1350.5410 5.8320
1354.9290 11.2358
1359.8230 20.9708
1362.4510 6.0227
1374.0020 15.9241
1376.9430 23.3854
1378.6920 33.6460
1385.9580 31.0574
1387.7910 5.0925
1391.2190 6.2849
1392.6380 14.9195
1395.6500 16.6003
1400.0240 7.1742
1403.7170 33.0159
1405.3310 6.6903
1406.9290 12.8727
1412.6130 5.8869
1414.7400 12.9585
1418.7160 11.1055
1419.7860 4.3305
1420.7860 25.3945
1424.8390 22.7708
1425.8660 10.7054
1427.8920 11.8392
1431.8080 8.8712
1434.7070 11.1953
1435.4650 13.3428
1440.3060 10.4710
1441.5520 8.2486
1448.5760 6.0518
1461.2390 8.0180
1465.7420 10.1286
1472.9990 6.4961
1488.1280 14.1037
1497.6340 28.9342
1507.7550 9.7751
1511.2980 7.4245
1520.1230 10.0091
1534.7900 29.8689
1535.8040 10.9045
1538.6160 25.8005
1540.0570 2.6780
1547.4530 5.6215
1551.5610 5.9985
1561.7530 51.4039
1568.9340 13.1456
1574.5760 22.8718
1580.7880 4.3973
1582.2930 20.1020
1587.8760 9.0766
1602.7080 9.9582
1611.7900 11.8314
1613.3720 11.9983
1615.0100 3.9452
1620.8860 5.3594
1621.8150 50.5559
1623.3650 4.3318
1630.2010 9.7773
1631.8400 9.6347
1649.9870 21.0061
1666.6990 7.8971
1683.4830 6.8387
1732.8270 10.3857
1785.1240 8.3062
1836.9700 8.2927
END IONS

BEGIN IONS
TITLE=File220 Spectrum7456 scans: 9988
PEPMASS=848.7665 6183.396
CHARGE=3+

240.2670 12.2159
241.1480 4.5773
248.0750 6.2476
249.2260 12.4016
254.0970 13.9288
255.5720 3.9177
257.4650 10.7730
260.0050 6.3181
261.9940 4.1909
263.0940 10.3210
266.0550 8.2172
268.1550 7.7173
271.1060 17.8464
273.9190 14.2466
275.1070 14.3995
276.1220 7.5908
278.1140 6.5396
282.7310 10.7900
283.9800 8.8213
285.0070 9.5694
286.2560 9.2948
289.1420 4.7359
293.5610 4.3164
296.0050 4.5039
298.2010 4.1675
300.8480 18.3924
302.1390 12.4504
310.9540 20.1286
313.4190 5.4434
314.1090 3.9146
316.1950 10.1855
317.3950 29.4152
318.1720 20.0378
322.1940 18.3138
323.2160 10.2844
325.2250 10.5465
326.0950 3.8995
329.0920 4.1849
332.1050 41.7356
333.1610 23.9565
334.2790 22.2672
335.0120 6.6971
339.1770 17.9591
340.2470 4.5201
341.4060 37.4927
344.9690 25.6917
346.4060 31.3590
347.2060 16.8357
349.1750 8.8173
350.6070 12.9285
351.2850 7.5886
351.9220 6.5612
353.0900 15.3513
354.3080 10.4042
355.3040 35.6866
356.9720 20.4792
358.2210 31.5764
359.2280 9.1256
363.0670 8.6994
365.1280 7.6694
366.2480 3.4759
367.0530 4.8456
369.2060 5.3498
370.1090 17.5019
371.3060 11.3345
372.0940 10.0616
373.0900 11.9056
374.6360 26.3357
376.2760 23.9266
378.0550 4.5763
379.2840 15.1033
381.0580 22.7709
382.1680 38.1583
383.0120 46.3354
384.2030 17.6773
385.3000 26.0645
386.3020 29.9839
387.3260 8.1622
388.3010 41.4730
389.4100 47.5409
390.1630 8.6969
392.3270 13.4344
393.2010 19.9307
394.3960 21.4322
397.1840 9.6513
398.2300 25.3763
399.2610 17.7791
401.3360 10.1303
402.1640 7.2028
405.2170 5.9518
407.2580 15.0333
408.2600 5.5515
409.1500 4.9336
409.9710 5.6360
411.2590 4.8001
412.4310 11.2564
413.0750 3.9542
415.3380 14.4281
416.0900 8.2756
416.9980 5.0338
418.2200 7.6533
419.2520 39.0137
421.2080 66.8354
421.9690 13.6631
424.1250 11.5285
425.1730 27.6038
426.2770 9.6592
427.0220 22.3586
427.6390 36.5387
429.1710 22.5606
431.0830 11.1858
432.4350 14.9180
433.3500 34.3865
434.3510 27.6854
435.2190 8.3536
437.2880 28.9763
438.2140 25.6167
439.3520 24.4541
440.0470 17.1866
441.2920 43.9136
443.2250 6.5635
445.4170 9.0788
446.1810 7.5622
447.1970 20.7819
448.1120 7.2633
450.1510 8.4239
451.1590 30.4197
452.1790 22.6689
453.7050 28.3945
454.4880 5.8741
456.3780 12.5708
458.3310 23.9161
459.9350 17.7338
461.1780 5.7188
462.2880 26.9761
463.4960 32.7915
464.3470 23.3444
465.2920 23.3348
466.3280 5.1574
467.3470 21.1880
468.5110 24.6338
471.0030 65.2080
472.2510 46.2474
473.4270 7.7913
474.7540 36.8857
476.2150 73.1474
477.3120 73.5826
478.3650 36.5167
479.0850 11.1205
480.4120 5.6638
481.2210 18.5864
482.3490 7.0708
483.2600 20.5519
485.2640 23.0461
486.1780 16.5262
487.3750 12.2335
488.5130 22.2393
489.2910 23.5633
490.1640 7.2316
491.2610 5.3288
492.2990 32.3361
493.2880 31.0633
495.3700 5.4906
496.2560 11.3387
497.1790 7.4236
498.2690 5.8090
499.3490 54.2504
500.1310 36.0363
501.1170 21.5439
502.3530 3.2040
503.2140 30.7415
504.2910 1.9925
505.1910 23.6481
506.4190 9.9514
507.1430 6.5108
507.8580 18.5520
509.1850 22.8890
510.2540 34.9575
511.1560 16.3781
513.2900 43.9142
514.3120 43.7433
515.3390 4.4779
518.7290 55.3585
520.3770 137.4290
521.6000 53.3377
522.5700 47.3709
524.3100 7.1642
525.3430 22.7598
526.5830 8.6283
527.2080 8.3508
528.5450 38.8983
529.1920 5.8038
530.2900 28.5503
531.3090 18.9318
532.3450 13.0094
533.1860 34.2175
534.1310 57.8855
535.1170 14.5015
536.3720 25.5765
537.3430 34.1493
538.5620 74.9673
539.3280 34.8683
540.2270 4.2207
541.2850 67.1031
542.3070 16.4736
543.7060 10.1228
545.4800 18.3396
547.3070 14.0136
549.4590 30.5468
551.1500 7.7876
552.4900 42.3995
553.4710 28.9362
554.3960 78.8390
555.2520 54.7254
556.3640 11.2509
557.3620 95.5715
558.3180 39.9719
560.2820 14.4129
561.2490 66.1470
562.6950 10.5765
563.3570 46.4529
564.2980 87.6079
565.4720 209.5310
566.4770 73.2664
567.7580 92.5004
568.5430 22.2271
569.4090 45.2885
571.0380 82.2768
572.3890 12.7523
573.3210 2.6351
574.2420 30.2037
575.2160 63.1709
576.0870 96.6678
577.3200 41.0920
578.2890 39.9902
579.5870 74.3792
581.1030 19.0102
582.0170 64.6525
583.2840 18.0270
585.4080 55.1681
586.3060 23.5968
587.2050 84.7442
588.5680 62.9909
590.1740 82.3536
591.4610 53.0561
592.2740 35.3247
593.3320 107.8700
594.3540 24.9857
595.5600 12.8136
596.5570 58.2565
597.4210 10.3467
599.2020 25.8563
600.2520 42.2447
601.1180 66.7379
603.2020 131.1970
604.8680 69.0719
606.0350 85.7638
607.6420 44.0873
608.4420 22.2135
609.5360 120.1890
610.4340 77.6492
611.4920 42.9033
612.4470 21.5722
613.2430 14.4316
614.4450 12.6945
615.4980 20.1702
616.4830 97.2730
617.3010 54.9192
618.3610 52.6760
619.1130 10.7986
620.3850 36.5331
621.1480 34.4723
622.4890 25.6263
623.2800 26.4784
624.4270 4.7001
625.2740 33.4518
626.1660 45.4789
627.2230 61.3358
629.3950 68.4485
630.4570 20.2739
631.2380 16.7148
632.1320 125.6120
632.9330 37.6709
633.6540 54.0940
634.5610 45.2208
635.3790 47.7644
636.5440 54.9704
637.9260 83.8580
638.6050 5.6490
639.5160 51.7140
640.3550 43.1060
641.4200 30.4307
642.3480 31.3589
643.4260 13.4523
644.1320 14.9972
645.0500 73.7140
646.4440 27.0114
647.2570 25.0240
648.0010 43.3273
648.6980 32.6055
649.5960 67.6577
650.4070 85.6165
651.3350 17.5617
652.2290 39.4418
653.2840 81.1567
653.9280 33.3250
654.8360 86.6372
655.7850 55.2146
657.3210 98.3968
658.2220 15.9810
659.4320 4.5456
661.2070 8.3930
662.2320 122.5200
663.4860 77.4182
664.3710 33.7209
665.2060 56.1591
666.2080 16.0424
667.9620 109.1320
668.6590 10.7136
669.4220 67.5103
670.6180 61.1353
671.4580 29.5719
672.1800 70.9474
673.2420 127.2300
674.7290 127.0230
676.0140 138.0700
677.7110 84.1444
678.4290 30.5408
679.5580 81.5185
680.9630 44.2835
682.1860 15.9277
683.5010 64.8039
684.4980 32.0122
685.5030 55.1030
686.2320 71.6737
686.9500 43.7571
688.3880 207.2140
689.5100 57.9673
690.8360 61.1617
691.4960 25.9469
692.5500 53.7126
693.5040 14.5218
695.0720 81.4331
695.9250 117.2940
696.5620 14.7022
697.5420 69.0413
698.4320 2.5000
699.6070 81.9642
700.4240 76.8584
701.3130 145.8550
702.5500 65.2813
703.6230 172.4940
705.2310 126.0550
706.1210 57.5581
707.1200 59.0084
708.3950 40.2290
709.2460 26.1416
710.2220 90.6091
711.2570 88.0799
712.4680 52.3396
713.2550 15.9261
714.3090 53.1016
715.5010 82.5819
716.2360 144.8620
717.7470 122.1990
719.3440 91.2767
720.4200 58.8837
721.4070 25.0644
723.1190 13.0369
724.4000 103.8350
725.6220 21.4180
726.5370 85.6290
727.2590 43.6607
728.7340 130.4450
729.3890 32.3582
730.8910 92.9550
731.6740 46.1279
733.0820 109.9470
734.1270 174.3510
734.8570 140.1560
736.2840 57.4325
737.2620 66.7835
738.0390 47.3965
739.4070 76.3740
740.2950 35.3730
741.4240 71.8370
742.5180 50.9580
743.4320 28.7324
744.4340 33.2931
745.4880 96.2844
746.3930 18.2148
747.0930 8.6798
748.3480 133.1670
749.3720 103.5590
750.2700 60.6092
751.3130 42.6856
752.5460 40.4487
753.2250 35.1938
754.2180 33.3466
755.2260 64.0158
756.1050 28.7694
757.2830 35.3331
758.4230 84.5378
759.4060 126.4320
760.5550 101.6740
761.8240 127.7970
762.9210 54.2521
764.2990 71.7001
764.9530 10.4041
766.4080 71.9079
767.5320 73.3005
768.3610 114.0900
769.4190 61.9593
770.1150 39.7208
771.4830 156.8840
772.6470 69.6865
773.8160 82.5671
774.5330 23.5711
775.4520 122.6640
776.7300 211.3560
777.4650 13.8311
778.6300 141.9190
780.0490 108.3240
781.0490 71.9961
782.2030 81.0517
783.0220 59.3497
784.1770 164.0820
785.3110 126.0670
786.3220 150.1830
787.6850 85.1331
788.4840 61.2468
789.5040 96.6830
790.4040 77.8838
791.3550 90.5276
792.5940 45.9526
793.3790 14.2370
794.9150 201.2620
795.6910 19.9507
796.8320 87.9161
797.7270 199.3120
798.7850 141.7790
799.6410 47.3119
800.6480 39.5018
801.6960 143.5770
802.5900 148.5890
803.7170 27.7039
804.4660 226.1720
805.4160 155.6550
806.1910 58.5884
807.3500 64.9143
808.4840 86.5958
809.7270 40.6277
810.8600 80.8160
812.0950 233.0070
813.5670 548.5120
814.5770 111.6460
815.4340 81.6588
816.5000 183.4070
817.5120 203.1510
818.4560 116.0040
819.4720 25.8896
820.2690 270.3340
821.3810 187.2380
822.4770 150.0410
823.4360 485.3070
824.2270 191.6490
824.8560 56.3705
826.1950 249.2810
827.0280 395.1280
828.0540 287.6040
829.1890 195.9880
830.3800 708.6400
831.3260 673.5090
832.2010 169.6010
833.3670 141.7460
834.3690 65.6825
835.8440 86.1258
836.7020 119.8640
837.6940 100.6690
839.1010 340.5210
839.9690 208.5690
842.2280 18.7516
847.7540 117.6140
848.5360 63.5074
849.5710 60.2716
850.3190 12.3480
853.4010 13.2219
854.5150 41.6813
855.4590 33.1611
856.5360 12.3384
857.4010 6.1882
858.4090 20.7898
859.3180 30.6270
860.5030 10.4016
861.5020 12.2686
865.7360 51.5662
866.8830 78.5692
867.9540 80.6785
868.5620 45.0005
869.5770 5.1589
870.4550 17.4888
871.1690 34.2479
873.3800 42.9720
874.0340 7.6477
876.0970 136.2770
877.1600 55.1000
878.2520 19.1156
879.2380 27.7250
880.2130 59.1781
881.2680 10.7113
882.8080 43.6362
883.5370 21.3374
884.5720 27.5798
885.5660 50.8048
886.7900 14.6384
887.4360 8.8459
888.7860 61.0541
889.6300 34.3170
890.4050 16.8115
891.6780 12.1837
892.3860 38.1587
893.6920 81.9709
894.3380 20.6037
895.3820 4.9327
896.6300 62.1541
897.2870 8.7358
898.5040 2.6193
899.1900 13.7642
900.5380 138.3670
901.6530 138.8680
902.3650 28.5475
903.0520 15.8328
905.4860 2.7918
906.5600 18.3664
907.6950 19.0505
909.1280 57.7380
909.7350 186.8120
910.6860 46.6766
912.7800 11.2465
913.5840 48.1856
915.6080 45.0414
916.6230 21.4918
917.9850 106.4860
919.0160 21.8223
919.9160 68.7693
921.5640 58.9037
922.9630 79.7245
923.5990 15.8091
924.4710 7.9403
925.8870 11.9296
926.6450 90.4596
927.5150 45.6458
928.3020 18.6164
929.2560 55.1065
930.8820 34.6303
932.5860 48.2865
933.8320 95.6646
934.8620 124.0240
935.6630 56.0063
937.2390 56.8437
938.3490 5.0318
939.0030 13.0375
939.7990 90.7364
940.4560 10.1371
941.5940 47.6989
944.6000 9.9865
945.5470 22.4298
946.2200 32.8022
946.9470 18.4845
947.7190 7.3420
948.4850 23.1327
951.7750 6.1451
952.9470 28.6786
954.1470 59.9643
956.3480 110.2560
957.5000 20.2837
959.6710 19.5638
960.6450 69.8569
962.4150 61.9262
963.5510 7.1827
965.7190 13.4240
966.6760 91.4745
968.0770 2.8589
968.7640 6.3154
970.4080 6.9823
972.2430 42.6222
973.7530 27.0446
974.5690 23.2143
975.5090 46.9926
977.2640 44.5566
978.5470 16.8557
979.5780 52.8876
981.5290 71.2113
983.4080 39.4349
984.4080 24.8822
986.0740 19.1495
987.2340 69.9422
989.5380 57.1548
990.5470 157.1320
991.5290 99.5414
992.1640 61.8733
993.0950 81.1657
995.1250 42.6368
995.7530 3.2649
996.6860 28.7673
997.8790 56.3023
998.6110 76.9615
1000.0710 59.0068
1000.6800 42.7112
1002.0750 25.9718
1003.3620 34.1643
1004.5030 34.4325
1005.4340 82.2542
1006.1330 53.0252
1008.6620 9.4949
1009.6990 13.6331
1010.6460 8.7753
1011.7880 7.7682
1013.6890 3.4891
1014.4760 35.4279
1015.2370 4.1279
1017.8590 35.5764
1018.5610 30.6667
1019.4770 39.6088
1020.8810 32.8851
1022.1370 19.5364
1023.1040 16.1822
1024.5040 19.8116
1025.8820 17.5003
1028.4920 50.2074
1029.2810 48.6054
1031.6060 144.1120
1032.3770 18.2876
1033.3120 34.4516
1034.2470 49.0476
1035.4460 17.1829
1036.3340 32.7536
1037.1980 20.4476
1038.1420 15.3874
1039.2770 156.0940
1040.3530 16.5238
1041.9520 55.1765
1042.9630 7.0815
1044.9350 38.9744
1046.7090 26.9787
1047.9830 59.2664
1049.3700 99.5276
1050.4370 46.1680
1051.9380 63.1443
1052.9660 29.0624
1053.5750 37.0472
1056.3020 91.4959
1057.5650 8.7403
1058.3700 7.6031
1059.2190 44.8636
1062.6510 11.6211
1064.4550 28.1561
1065.4630 14.5038
1066.8800 39.2272
1068.1490 104.1860
1069.2550 78.3811
1070.8580 65.7152
1071.7730 18.9003
1072.5610 14.0871
1073.7920 22.0009
1074.9200 31.4742
1075.8120 16.0611
1077.5670 10.1509
1078.6760 6.1527
1080.0050 82.2416
1081.1170 111.5670
1081.7660 1.4391
1082.5010 43.1632
1083.8810 44.7205
1084.6120 10.1062
1085.7180 35.5680
1087.5060 50.4906
1090.8260 46.5733
1091.5290 23.3829
1092.5460 19.3812
1093.3900 16.1725
1094.6050 5.7592
1095.3620 12.4237
1096.6340 6.7568
1097.6650 21.9338
1098.6190 15.1843
1099.9340 64.5030
1101.5910 42.9656
1103.5630 38.7626
1105.0700 22.3336
1106.0220 6.4600
1107.3540 60.5097
1108.5350 15.0615
1109.4190 24.2270
1112.5530 73.5768
1113.9720 56.9166
1114.6230 8.7764
1115.7760 15.2612
1116.9520 74.0315
1117.7100 10.4769
1118.7050 3.2244
1119.7640 16.3498
1120.4700 39.6409
1121.8580 63.6552
1122.4970 16.8953
1123.2390 18.8219
1124.5780 29.4326
1125.7400 11.2940
1127.3230 23.1722
1129.4050 24.8120
1130.3380 15.7244
1132.8000 53.5998
1133.6310 20.9502
1134.5940 25.3950
1135.7950 32.4997
1136.6100 20.4625
1139.3430 39.9850
1140.7920 46.6323
1141.5970 80.6124
1142.4620 13.0910
1143.3660 13.4715
1146.0130 34.4495
1147.7420 31.8763
1149.0750 58.3700
1150.2480 48.6731
1150.9620 9.7169
1152.6540 19.6792
1153.7510 46.0179
1155.8840 33.6099
1156.5690 25.9806
1157.5450 31.9997
1158.3380 22.9578
1159.6200 20.0838
1160.8950 113.9450
1161.7630 46.0106
1162.6320 37.5748
1163.9000 20.0855
1164.8910 20.0663
1165.8890 102.9130
1166.5390 10.4100
1167.9110 5.2873
1171.5810 35.9197
1172.5490 19.3165
1175.2100 22.1350
1176.6080 8.7440
1180.0290 16.8192
1180.8860 71.7870
1182.6450 6.3328
1183.5190 20.0203
1184.2520 16.7423
1184.9800 68.5109
1187.2250 28.0686
1188.7810 22.9153
1189.5780 6.1692
1190.7210 28.4239
1192.6490 24.2031
1193.6350 41.0997
1195.4920 8.4153
1197.7420 38.8760
1198.5400 9.4999
1199.9620 16.0964
1207.0630 25.3993
1207.7220 6.5409
1210.7330 13.3857
1212.3890 2.2031
1213.6040 7.3814
1214.6800 48.7434
1217.8820 5.3058
1219.3270 16.5495
1220.8290 29.6493
1222.5270 5.8126
1223.8540 28.7645
1224.4690 12.1568
1225.5590 13.5901
1227.7610 10.0160
1228.7310 13.3932
1229.6320 16.5701
1230.3760 17.7850
1231.7910 67.0098
1232.9440 47.1077
1233.8830 10.1985
1238.5050 26.3596
1239.7190 8.9472
1240.6200 19.8307
1241.2620 17.0615
1243.6510 20.7986
1247.6450 13.5685
1248.6260 15.7383
1249.6970 7.7620
1251.5300 14.9931
1252.6180 8.7832
1253.7570 20.1521
1254.7100 19.7932
1255.8180 4.6302
1257.5320 14.5672
1258.9230 12.2638
1259.7980 6.9198
1260.8800 12.5845
1261.5170 4.3149
1266.3790 27.9036
1267.8790 6.8334
1271.0510 9.6426
1271.7090 3.0820
1272.7830 37.8341
1273.6710 25.3747
1278.4900 7.6002
1280.6210 18.8207
1281.7470 19.0482
1284.7880 16.1899
1285.7860 9.1696
1295.6740 30.2900
1297.6090 5.4662
1298.9610 5.0431
1301.5270 12.4801
1302.9540 58.8644
1303.8870 19.2565
1307.7530 18.3045
1308.6510 9.4161
1311.9520 7.5233
1313.5870 15.9249
1314.9490 10.8042
1318.5210 11.7675
1320.7870 32.4114
1322.6160 8.9889
1326.1150 13.1795
1327.4530 15.7665
1329.5270 24.4670
1334.6190 10.2087
1337.1360 3.2239
1338.6240 31.1868
1339.7270 7.6822
1340.9840 2.9278
1341.7660 7.6576
1342.8580 12.8201
1343.7740 16.7299
1349.8760 7.1791
1351.2180 18.4075
1353.6200 27.4143
1355.8750 15.7780
1360.6290 4.6355
1365.8650 15.5398
1369.7870 4.0168
1370.5260 5.1028
1374.4390 29.7215
1377.4960 10.2383
1378.9070 7.7949
1379.5620 19.9989
1380.6580 12.8908
1381.6880 10.4174
1387.9510 12.8125
1392.7160 8.7453
1394.6590 18.5143
1397.7000 23.4376
1398.7450 7.4733
1400.6350 14.8165
1402.8720 11.3470
1408.8410 6.1030
1411.8500 5.9515
1416.4150 11.7716
1419.0380 12.5907
1420.8870 3.4292
1421.9000 9.9590
1423.3140 13.2639
1435.5290 20.2572
1446.9690 11.3942
1449.7190 6.2945
1450.4890 6.1508
1451.7140 18.7225
1456.9450 3.9221
1460.0510 12.8926
1465.7540 22.6494
1471.7930 5.5178
1480.9760 32.7300
1488.7150 7.8136
1493.8760 2.8828
1499.7060 5.3328
1500.8500 11.3297
1502.5360 4.0067
1505.4620 10.9945
1506.4840 27.1051
1520.6990 15.4709
1521.6100 10.9195
1522.6990 8.2413
1523.7990 33.0710
1528.6650 9.1091
1530.8880 2.5277
1532.5700 7.1233
1533.5480 14.6923
1535.6380 7.3721
1545.8380 4.8319
1547.0190 19.5924
1548.7400 76.6294
1549.7180 13.4643
1552.0540 9.8325
1554.9540 3.3571
1558.8660 14.7062
1564.0680 14.3115
1566.9620 10.9510
1569.4880 9.9886
1578.9610 2.8633
1628.4610 7.1039
1631.7950 25.2591
1658.3270 3.6265
1674.8350 4.6098
1748.7900 10.7875
1753.8270 7.6214
1779.8830 8.0710
1814.2970 15.6420
1842.9510 6.7037
1954.2020 20.0952
END IONS

BEGIN IONS
TITLE=File220 Spectrum7505 scans: 10065
PEPMASS=870.805 6379.1519
CHARGE=2+

244.0520 3.4176
249.0730 9.4953
253.1960 5.7690
256.2540 4.9947
259.0040 13.9860
262.3300 13.1267
265.9080 9.4055
268.1370 8.0149
270.1420 4.8479
277.1030 18.0719
279.1360 7.3971
282.1240 21.1576
283.1850 24.6447
284.1760 9.3722
292.2870 17.6464
293.2270 8.5768
295.1190 29.2371
296.2330 15.6975
303.3050 11.4257
304.3630 5.6933
307.3540 29.9475
308.1700 23.3247
309.1350 8.3803
310.7600 4.7327
313.3130 20.8349
314.2630 3.0722
315.1590 17.5744
316.5490 20.1153
317.4990 9.7310
318.8290 68.9896
321.3450 8.3975
322.1630 9.1550
323.2940 41.6180
325.2770 15.3491
326.1690 3.0439
327.1710 3.2728
329.0970 30.6563
333.1610 9.0327
334.0290 10.9356
337.6180 23.1543
338.2630 8.4270
339.0790 7.0750
341.3700 46.1980
342.1990 9.9080
343.2600 12.0731
344.0350 4.7180
346.6780 7.0926
349.1480 29.8273
350.2520 5.3715
351.2190 46.9834
353.1640 4.6317
354.3320 22.8730
357.3160 5.5517
359.3540 7.3473
360.2690 23.8623
362.4110 6.7582
364.1760 6.0777
365.2280 17.9393
366.2150 10.0630
367.3660 17.7043
368.2300 15.1263
369.2070 14.4772
371.1980 8.1651
372.1770 6.7635
373.0740 9.5775
374.2670 24.5344
375.2610 4.7784
376.4150 11.9729
378.2660 10.5258
379.3420 8.5548
381.1570 29.2915
382.3210 9.5144
383.3460 6.2276
385.4070 17.5268
386.4270 4.4415
387.2010 13.3577
388.3610 13.8205
389.3930 10.7411
390.3540 4.5913
391.0770 11.0234
394.3590 2.5917
395.4190 19.9734
396.3060 12.0697
397.3150 17.7092
398.2840 4.8674
401.1770 9.7373
402.2960 24.6968
403.3140 19.8190
404.4170 15.5542
405.2800 13.2504
408.5900 13.0618
410.3840 48.2180
411.3280 49.7699
412.4390 1.8138
413.1070 9.5677
415.2840 3.5125
416.2550 6.8612
418.2660 15.4721
420.1880 11.9075
421.2660 8.0695
422.2850 11.5819
423.1870 43.4418
425.3840 48.8738
425.9910 6.1072
427.4360 8.6674
428.8310 25.4533
429.5110 8.9296
432.5590 7.5589
433.3420 16.2718
434.3300 7.9084
435.2220 13.2110
436.3630 10.9352
437.2570 8.9398
438.1940 7.4992
439.2330 24.0541
440.2190 7.1341
441.2900 41.1126
442.2760 15.0758
443.3800 58.0418
444.8920 3.0176
447.6400 25.6654
448.3470 14.1066
449.4210 5.9835
450.4240 22.9074
451.3590 10.3261
452.9790 28.7237
454.5320 53.7138
455.2600 11.3123
456.2240 12.3582
457.1120 13.2534
458.4310 11.6825
459.2490 5.3198
460.2930 6.4888
461.2350 35.7803
462.3650 14.4082
463.4350 17.6945
465.1070 38.5925
466.4800 27.8144
467.1930 63.3455
468.3180 3.2528
469.5990 7.6060
471.4530 8.3311
472.4090 50.3317
473.2160 7.2431
474.3180 8.1779
478.3720 14.0923
481.0020 44.1629
482.0580 49.7618
483.0320 53.1839
484.8880 75.0348
486.1790 56.8829
490.0090 13.6355
492.4740 64.5794
493.1820 4.5259
494.6770 31.3985
495.3960 6.5229
496.1380 11.1116
497.2790 12.8981
498.2510 12.6379
499.6120 46.9866
500.7750 24.3414
501.3840 15.2485
502.4960 62.2362
503.1920 8.2648
504.2630 9.4189
505.2160 8.6649
506.1170 37.3417
507.4980 34.9195
508.7140 10.0274
509.3690 5.3658
510.3190 15.6162
512.0730 20.7889
513.1890 24.6782
514.3980 23.9135
515.3060 43.4518
516.1490 9.2928
517.4960 57.2191
518.3440 4.5002
519.1860 14.9389
520.5850 101.3890
521.2320 76.0444
523.0940 100.6360
524.3550 14.1253
525.3860 48.6497
527.1080 88.2415
528.0430 34.3903
529.1180 12.9464
530.2960 23.2847
531.3520 11.0276
532.3010 30.0981
534.6810 32.6651
535.3560 19.3563
537.3060 15.0469
539.1770 71.1570
542.3290 48.7227
543.1400 51.9784
544.7370 15.5430
545.4860 19.8321
546.7610 22.5761
547.8330 60.1479
549.3030 13.8267
550.2480 73.0835
551.6440 199.5350
552.4710 36.9672
553.8660 36.8022
555.0660 162.2710
556.1040 45.7955
557.3740 18.4155
559.2090 61.8404
560.2700 4.3702
561.1220 7.6009
562.6070 72.2868
563.4080 11.3505
564.6130 6.7038
565.4950 27.9055
566.5860 67.2023
567.5360 8.0402
569.1260 77.5689
570.3180 25.9614
570.9710 10.7836
572.2600 29.1937
574.1530 22.2903
576.4920 8.8526
577.2970 17.6144
578.6280 22.5119
579.6980 33.0332
580.6160 15.7301
582.3510 155.7110
583.1560 117.7950
584.0860 62.2036
585.2310 26.7638
586.5120 25.5142
587.5940 58.9284
588.3810 75.7896
589.5070 59.0800
590.3000 5.2008
591.3580 119.7590
592.8630 52.0088
593.9460 116.5520
595.5070 58.5894
596.4600 16.6853
597.5450 39.8678
600.0050 53.1195
601.1950 108.2940
602.1620 37.5966
603.7790 38.3517
604.4980 8.6393
605.3760 11.3023
606.2200 41.9291
607.7530 55.1525
609.6970 32.8755
610.6140 371.1300
611.8670 4.5954
613.5380 69.4709
614.7060 68.8848
615.5160 5.1337
616.5340 108.7740
617.2070 230.3850
617.8120 21.7265
618.4950 36.1122
619.5900 42.9484
620.1950 45.7969
621.2950 18.6267
622.1050 36.6577
623.2990 43.4911
624.1160 70.6279
625.5580 38.3817
626.2460 67.0431
627.2630 50.4201
628.2210 114.3770
628.8370 19.7735
629.4580 10.0039
630.5250 36.2222
631.7530 50.1102
632.5400 22.3532
633.4480 26.6423
634.2200 12.9752
635.3680 25.5450
636.9440 138.2120
638.2850 190.6040
639.7960 80.6492
640.5080 25.7998
641.6730 11.1217
642.4520 111.4370
643.4870 90.4733
644.4310 94.3128
645.2270 331.2310
646.4350 1.7514
647.4940 40.1757
648.5030 30.8449
649.4100 23.4653
650.5250 25.6665
651.3910 16.9615
652.4140 35.9802
653.5880 97.2757
654.5680 41.4986
655.9400 31.9191
656.6260 24.2148
657.6480 161.5900
658.4680 35.3610
659.3880 70.7591
660.7570 22.6089
661.5760 26.7376
662.4420 24.6209
663.2220 46.1361
664.0290 72.8560
665.6920 256.1600
666.5080 48.4180
667.3550 37.5069
668.4670 47.6860
669.6430 124.7270
670.4070 22.2017
671.1580 38.6188
672.6160 429.8500
673.5350 167.4230
674.6320 112.9580
675.5560 26.4400
676.8070 33.8314
678.1080 147.6410
678.7810 82.4884
679.6120 92.4098
680.7900 38.0509
681.7140 16.4038
682.4740 5.6278
683.2530 67.7918
684.0920 83.1139
685.2110 14.8598
686.9760 161.9630
688.6640 47.1538
689.6900 54.0791
690.8440 72.9242
691.5320 58.4991
692.2860 6.8597
693.6250 268.4450
695.2590 387.3410
696.3920 54.9372
697.3660 95.1777
698.6990 91.5011
699.9100 240.6510
700.9440 164.2730
702.1390 53.0705
703.4180 31.3878
704.4160 38.7033
705.6120 34.3971
706.4930 136.0730
707.3580 39.7352
708.3760 68.9729
709.7300 57.1395
710.3500 64.7873
711.0420 27.2759
711.9740 123.1960
713.0200 65.4009
714.3780 76.3870
716.7610 209.6350
717.4420 12.4317
718.6860 68.7439
719.3390 5.0406
720.6520 99.1125
721.8290 55.1405
722.4470 36.1088
723.4990 48.9528
724.2940 10.1455
725.3320 30.8042
726.4580 54.8515
727.4410 6.7791
728.3860 59.2785
729.4240 55.2880
730.3590 27.0521
731.5140 32.7655
732.2340 77.2869
733.5780 53.6824
734.2830 69.7152
735.2880 67.6985
736.5200 47.5415
737.3810 57.2345
738.3770 279.1560
739.4880 134.9790
740.4670 5.3197
742.1830 118.1090
743.3170 52.9678
744.4420 134.4070
745.3760 23.1666
746.2540 47.8714
747.0520 73.6129
747.8910 101.2040
748.5980 85.6814
749.4320 9.1171
750.4280 28.1309
751.3650 80.3117
752.4160 204.4620
753.5220 76.9171
754.6620 37.6988
755.7120 77.1723
756.5790 164.7100
757.6790 72.2875
759.3960 366.0680
760.5060 115.3770
761.5630 89.2468
762.4360 33.9665
763.3980 44.2202
764.2820 61.2203
765.0030 53.1314
765.9170 51.9396
767.1700 33.3001
768.2170 60.6339
768.9600 8.4754
769.9950 24.4347
770.7330 39.7415
771.3870 15.7785
772.2040 52.9795
773.4270 47.3881
774.8420 22.4927
775.4900 12.0447
776.3710 47.5556
777.3350 40.3772
778.3410 133.9700
780.2440 344.7900
781.1000 292.7010
782.0740 81.3678
782.9380 60.7008
783.7410 55.0598
784.6150 181.8160
785.8510 168.8040
787.0390 53.7104
788.3360 95.8494
789.5900 71.2017
790.5610 54.5905
791.6440 186.0400
792.9160 36.3736
794.0720 24.7076
795.4930 40.4814
796.4910 22.9302
797.6660 113.3500
798.7740 51.1352
799.5940 162.2160
801.4500 318.3380
802.2910 386.9890
802.9390 27.2345
804.6300 82.7267
805.6550 91.6795
806.5620 95.2630
807.4730 116.3200
809.0210 211.6020
810.0280 45.9025
810.6890 16.5645
811.4830 53.2947
812.7430 70.3564
813.7290 18.8830
814.5630 90.5882
815.5440 9.5521
816.5250 22.4176
817.5660 111.1170
818.2700 83.6391
819.1100 131.5780
820.2330 12.1808
820.8460 5.9342
821.8930 34.2988
823.1990 667.5250
823.9350 80.4826
824.6850 88.0715
825.8720 115.3390
826.5250 254.7760
827.4080 397.7470
828.1160 212.1390
828.8320 95.8810
829.6020 74.1776
830.5860 148.5670
831.7500 46.3448
832.6990 73.4246
833.6550 105.2200
834.5600 187.4150
835.4650 326.6460
837.0850 182.5960
838.1980 79.1670
839.0190 212.2430
839.9080 127.7850
841.0370 272.4080
842.2180 183.7830
843.2540 258.3710
844.4870 3176.2700
845.3980 327.7800
846.1960 119.5490
847.0130 90.8767
848.3850 396.9960
849.0750 1005.7800
850.0500 279.0090
851.0370 172.4420
852.4820 842.1850
853.4340 788.7800
854.5800 113.2460
855.9030 242.5410
856.9540 191.8110
857.8240 75.6806
858.7150 277.2300
859.7650 135.4220
861.1720 326.6640
862.2650 81.2789
862.9190 23.7773
868.2490 14.4307
869.9130 133.9490
871.4750 327.9890
872.2860 58.5126
874.4210 25.5964
876.2930 21.3475
877.3710 45.2606
878.4000 35.8727
879.6500 56.0475
880.5470 2.9840
882.6340 10.0188
883.4030 12.6207
885.3020 4.8931
886.4040 36.6430
888.2020 32.1082
889.8170 44.8922
890.6110 2.3146
893.6690 7.3905
895.4930 10.6581
897.6120 13.2990
898.4090 14.6933
900.0480 63.0182
900.8380 10.3195
901.4770 12.9246
902.5610 7.0201
903.5320 63.3705
904.9640 26.7523
906.8050 10.7562
907.5520 36.5881
909.3960 20.6374
910.0920 13.3017
910.7300 7.9078
911.4480 10.0209
912.6100 12.6084
913.7070 46.3156
914.5830 20.2627
916.8130 47.0787
917.5320 5.2714
918.6380 24.3499
920.5150 6.0922
921.4710 30.5414
922.2760 85.8844
923.1520 81.6084
924.3820 32.7227
925.9520 26.7452
926.7310 18.3460
927.7140 28.4447
928.4550 13.7408
929.9860 35.0477
931.8550 35.9378
932.4900 16.9427
933.7030 46.9583
935.4750 8.5459
936.7380 12.6978
937.7890 18.4975
941.3000 83.8051
942.2750 17.0635
945.4150 92.0991
948.4800 17.0272
951.1570 45.6786
952.9500 38.2985
954.4610 107.2440
956.6260 21.3941
957.2790 3.6192
958.5960 44.0823
959.3850 9.3028
960.6750 5.7824
961.8030 34.7337
962.6800 18.6862
963.7650 31.1420
964.5560 67.9800
965.6540 6.8265
966.5710 15.1323
967.4860 9.3661
968.5120 31.1728
969.6520 25.4337
971.4970 57.6521
973.1350 15.2076
973.7440 3.5811
974.7560 78.9945
975.7740 21.9438
976.5730 31.7570
978.1900 115.6840
979.0390 40.9988
979.9180 29.6243
981.1150 20.4859
982.2040 29.0394
983.7620 14.5414
984.8010 24.8120
985.6340 20.2883
986.7960 26.6958
987.5500 16.7509
988.2660 43.2566
989.1520 26.3510
990.7380 10.9278
991.9340 18.5211
993.4580 32.2031
994.3740 42.3149
996.6450 26.7125
997.6160 5.3154
998.6810 21.2704
999.8310 16.0659
1000.9590 45.9265
1001.7510 24.4024
1003.0440 185.7760
1004.1680 83.2738
1005.2810 47.3477
1005.9420 58.9110
1006.5820 12.8050
1007.5160 70.6774
1008.3830 51.5579
1009.2940 43.4862
1010.2950 27.2648
1011.5320 50.8365
1012.7560 27.6208
1013.8410 31.6982
1014.6010 4.9927
1016.9050 63.8232
1017.6380 4.7301
1018.9600 22.2933
1020.5770 31.6992
1023.1090 45.2570
1024.7470 15.9804
1025.5740 4.4762
1026.7370 27.1902
1029.5290 52.8075
1031.4540 47.1591
1032.4410 20.5978
1033.3790 42.0226
1034.4240 2.7207
1035.7090 55.5718
1036.5130 45.7203
1037.2880 37.8659
1038.2420 60.3337
1039.4620 38.7175
1042.3960 18.9889
1043.7030 12.8604
1044.8920 21.3670
1045.7590 37.4492
1046.3930 34.5354
1047.1820 34.6538
1048.1320 38.8452
1049.5250 7.6305
1050.8150 34.6278
1051.6820 127.0240
1052.6390 109.3190
1053.9440 52.7572
1056.1660 29.6404
1056.7840 25.5008
1057.7570 92.3990
1058.6230 9.8689
1060.7790 76.2934
1061.9140 16.2411
1062.7640 20.3888
1063.7200 19.7123
1064.5830 57.4484
1065.9050 45.9245
1066.8490 20.3563
1067.7770 13.7234
1069.2320 38.1658
1070.5550 65.8567
1071.6470 41.6531
1072.7010 5.4565
1074.6160 21.2786
1076.1950 8.2567
1077.5990 29.8187
1078.6200 21.7467
1081.5320 5.4883
1082.6820 20.1424
1083.9720 20.1983
1085.1320 41.5841
1085.9400 6.7581
1087.2210 4.3754
1089.0330 126.7470
1089.7710 41.7230
1090.5570 9.3172
1091.3540 51.8187
1093.4830 30.3346
1095.5940 44.0642
1096.5570 49.1154
1097.4480 9.8905
1099.3280 8.6653
1101.5040 39.8407
1102.4140 18.4167
1103.6530 6.8666
1104.4850 11.8609
1108.3090 40.2567
1108.9920 14.2589
1109.9730 17.9506
1112.8680 18.5821
1113.6510 11.9541
1114.6130 11.9128
1116.9670 3.0588
1118.3770 10.4785
1119.7580 10.2470
1120.8120 40.4348
1121.7590 29.5044
1122.6650 42.2946
1123.7550 13.9591
1124.7260 10.4775
1125.8480 25.0900
1126.8310 23.1929
1127.8410 59.1531
1128.9130 21.1685
1129.8100 49.0755
1131.7000 7.2312
1133.0400 62.9672
1133.9020 34.3500
1138.6980 19.1984
1140.3350 50.6658
1142.5420 38.5258
1143.4570 28.0244
1145.7920 13.0110
1147.7460 19.9123
1148.5800 32.5514
1149.3280 19.6809
1150.1600 8.5102
1151.8360 43.8876
1154.6080 43.3896
1156.2450 9.3206
1157.0150 39.8389
1158.7000 35.4762
1160.7820 24.2350
1162.2830 28.4440
1163.6610 30.0684
1164.7780 16.3436
1165.5820 10.0595
1166.7090 14.8367
1167.3970 48.9056
1168.9920 26.5399
1170.2860 84.8216
1171.0480 23.3798
1172.3220 18.4893
1174.6530 28.0373
1175.7050 48.3164
1176.6080 17.9461
1178.6950 29.1624
1179.6950 31.5185
1181.1050 16.6479
1183.2210 15.3708
1185.0600 27.6939
1188.1870 48.4154
1188.9410 1.9546
1190.6670 25.9655
1191.6730 7.3622
1193.2710 16.7014
1195.2340 46.4447
1196.6030 20.7643
1197.9670 44.2956
1198.6200 4.7494
1200.7730 40.5288
1202.7160 32.5459
1204.2520 14.5268
1204.8600 19.5952
1206.6480 35.7391
1207.6760 11.1304
1209.5080 10.1626
1213.6080 32.0520
1215.7530 47.5018
1216.3750 3.3299
1217.4390 45.7784
1219.5330 11.0870
1221.5190 13.1905
1224.9610 16.0800
1225.6980 7.5907
1226.7530 6.2765
1227.7890 17.0076
1230.9110 50.2610
1231.7140 48.3983
1232.8170 24.5900
1236.8860 20.9841
1238.6830 31.3160
1239.7110 4.7403
1240.3320 18.4446
1241.9470 18.4928
1243.7320 7.5796
1244.8920 22.2182
1247.5890 11.0586
1248.6370 30.7245
1250.1810 11.7387
1251.9150 8.0396
1254.7550 17.7111
1255.7810 7.4936
1258.0310 38.5280
1259.0570 21.9348
1260.4950 12.4217
1261.5700 3.3195
1262.7100 3.3924
1265.3250 11.4447
1265.9780 7.7467
1266.6460 20.8161
1267.6750 10.8498
1269.9370 4.6227
1270.6760 2.8785
1276.8920 6.7457
1278.8280 19.8140
1280.7320 9.8941
1282.8990 12.5784
1283.6890 15.2850
1284.9510 5.6982
1285.7230 13.9725
1286.9030 26.7991
1287.7300 12.1996
1291.8910 12.7525
1292.5940 10.7853
1294.9910 20.2157
1299.3420 4.9520
1300.4080 10.1483
1301.9280 17.8375
1302.8790 11.4906
1306.8210 16.2953
1308.6220 33.5144
1309.8020 21.5703
1310.8200 11.9934
1312.4670 4.1621
1317.0700 3.2874
1317.9050 9.5541
1319.2400 15.8673
1320.9480 7.0220
1321.7950 8.2671
1325.5770 9.5480
1328.9170 8.5504
1330.9250 12.6876
1334.3390 16.3984
1336.8520 6.4583
1337.6800 15.5909
1342.6010 48.4707
1347.3520 15.0548
1349.6670 13.2089
1351.2460 3.1540
1351.9370 4.1104
1355.1690 5.0184
1357.9510 13.2494
1359.9200 5.5827
1362.0050 8.9225
1363.6840 11.4320
1364.5840 9.1548
1366.2780 5.8383
1366.9010 4.6194
1370.8430 9.4639
1372.9010 9.8776
1377.1950 21.3020
1379.5900 7.7069
1380.9240 5.7592
1384.0100 10.6874
1384.7840 7.9914
1385.5960 6.1736
1387.1250 6.3001
1390.9480 8.1238
1394.7590 16.6463
1395.8100 6.5181
1398.1900 5.3813
1405.1620 7.4478
1408.8600 5.2800
1409.9430 28.3519
1412.5810 8.4106
1413.9460 7.9206
1415.9560 9.5719
1417.6640 7.3848
1421.4820 14.3709
1422.4100 28.5453
1423.9040 6.1713
1425.3250 9.6923
1428.1000 10.8259
1430.6690 5.7137
1434.9480 14.7603
1435.7030 11.0658
1441.9950 8.8754
1444.7340 4.8744
1446.0380 4.5291
1447.7940 8.9299
1452.0520 19.4630
1454.1840 16.7838
1457.8190 14.7311
1463.6860 7.6701
1464.7350 15.8694
1465.3740 5.7630
1466.7670 17.1061
1467.8240 3.2669
1469.4080 15.9071
1471.0300 6.7090
1471.8700 13.2324
1472.7830 9.0007
1474.3950 6.5492
1475.7620 12.3090
1479.7170 17.3395
1480.7550 25.1087
1481.7630 9.8589
1484.8790 7.5114
1485.7720 26.1208
1489.0080 9.4643
1490.0970 7.4661
1495.7180 13.0159
1496.7030 12.2724
1498.1590 3.3445
1501.7770 16.6600
1505.7850 12.4274
1506.6840 6.8222
1509.4770 22.4413
1514.1620 10.1033
1515.1870 15.9688
1517.5540 2.2144
1523.3800 13.3788
1529.0110 9.9609
1538.4340 22.1704
1541.2550 11.2290
1548.9350 21.2655
1555.8750 11.5649
1558.7700 14.8470
1563.9970 11.0153
1565.8660 8.5966
1567.3660 13.8538
1584.4320 11.5162
1586.0470 8.1108
1593.8770 19.5497
1595.6700 21.0287
1624.0230 9.6111
1638.1120 9.9816
1658.4460 2.4653
1667.4400 13.3530
1710.1300 2.6963
1728.1130 18.2542
END IONS

BEGIN IONS
TITLE=File220 Spectrum7641 scans: 10252
PEPMASS=421.7582 35975.2656
CHARGE=2+

111.2080 4.3673
113.2960 2.8033
120.2640 27.1713
121.1160 12.2939
122.1180 4.4120
123.2460 20.6257
125.0590 8.1540
127.0550 13.2983
129.1170 91.7771
129.9940 10.4602
131.1370 50.9211
133.0480 74.0917
135.1330 36.4559
136.0880 51.5134
137.1400 57.2223
138.3370 6.1657
139.1850 18.1258
140.1400 8.4606
141.0760 3.7622
142.1100 17.2968
143.1710 92.8222
144.1790 8.1055
145.1210 29.5009
147.1080 112.8380
148.0750 13.0758
149.0480 72.0979
151.0990 43.1165
153.1440 48.7621
154.1360 7.1871
155.1190 38.4283
156.3380 19.8823
157.2680 38.9059
158.1380 25.0870
159.1380 27.7693
160.4590 8.5884
161.1320 65.8692
162.0980 27.1792
163.1730 117.2990
164.0870 7.1216
165.1320 72.9297
166.1490 3.8019
167.0290 43.0960
169.0590 100.5010
171.1330 465.2380
172.1580 37.2939
173.1320 154.9920
174.2200 33.2006
175.1970 215.1910
176.0960 25.8196
177.2350 109.0410
178.2290 51.1287
179.1150 198.3190
180.1900 15.7740
181.2140 77.0087
182.1360 26.5879
183.2590 87.1225
184.1670 56.3739
185.1190 69.5353
186.2400 37.9670
187.1430 65.2100
188.0530 28.4314
189.1050 79.8054
191.1920 88.7148
192.0650 9.6213
193.1500 96.1858
194.0840 22.6204
195.1710 72.8320
196.3670 58.9201
197.3280 45.1985
198.1230 46.4233
199.2750 75.3004
200.3250 73.1472
201.2060 200.9340
202.0970 36.0541
203.2570 56.6964
204.1020 17.7802
205.1610 72.0654
206.0780 14.6580
207.0960 127.8190
208.1060 20.5326
209.1370 93.3081
210.1170 133.6270
211.2180 67.2890
212.0560 14.0858
213.1140 91.3038
214.1290 27.3640
215.2250 65.9761
216.3010 43.1027
217.1940 76.0907
218.2720 41.7432
219.2020 128.1730
220.2190 34.8008
221.2180 131.4290
222.1330 38.0432
223.0550 102.4820
224.2670 55.8462
225.1490 184.5990
226.1540 66.9035
227.1730 142.5120
228.2090 79.3100
229.1590 201.6370
230.1700 88.8618
231.2550 34.7258
232.1000 43.9676
233.1500 108.0540
234.3860 33.1407
235.1400 186.6480
236.2080 194.3610
237.2380 129.2750
238.1710 61.0525
239.1190 366.9010
240.3100 40.3256
241.2320 88.5057
242.0020 29.7863
243.2960 156.0740
244.2140 95.7539
245.2010 105.7200
245.9900 9.7850
247.1370 28.4020
248.1390 75.3547
249.2690 107.1150
250.2540 127.1710
251.2170 199.3680
252.1160 89.2115
253.1900 106.7020
254.1520 112.7220
255.1250 122.8650
256.0120 112.2630
257.2200 183.5410
258.3300 70.6387
259.2980 109.7980
260.3260 47.5644
261.1660 95.0414
262.0990 60.1714
263.1040 182.3840
264.4560 76.8307
265.2960 224.9430
266.2640 189.3930
267.3680 169.8510
268.2130 29.1375
269.2400 67.6806
270.1660 36.2506
271.0990 118.1470
272.1790 1409.4200
273.2460 105.6220
274.2580 54.4816
275.2280 416.3050
276.1910 162.4080
277.1930 173.9630
278.2820 48.7270
279.1690 228.3520
280.2460 141.2590
281.2020 154.8600
282.2260 72.0999
283.1570 148.0620
284.1310 50.2749
285.1990 152.2100
286.2290 113.4630
287.2020 107.3960
288.1620 95.0331
289.1350 118.5110
290.1710 73.8722
291.2510 178.8840
292.2700 67.4288
293.2190 446.1580
294.1760 225.4350
295.0950 162.6960
296.0410 100.7330
297.2930 89.1854
298.1900 50.6252
299.1880 100.1050
300.1820 30.4729
301.2850 62.0693
303.0370 150.9150
304.3160 72.2660
305.2510 174.3450
306.0420 137.8720
307.1390 562.0650
308.1760 233.5620
309.1890 346.5350
310.2850 69.8961
311.2110 104.8280
312.4810 87.2197
313.3170 108.0600
314.5270 103.5060
315.3680 415.2540
316.4190 65.0955
317.1800 107.5410
318.1210 73.0658
319.1840 114.2050
320.2310 58.5594
321.2590 136.8840
322.2320 127.2250
323.2580 255.1230
324.1760 136.8570
325.3070 161.4090
326.2160 112.6680
327.4980 906.0970
328.2830 165.2410
329.1950 56.7427
330.2230 71.6437
331.2700 182.7540
332.1730 97.1328
333.2030 171.4630
334.2060 102.0740
335.1510 123.1850
336.7080 1071.8300
337.7060 19.5563
338.4340 54.1034
339.2960 209.5390
340.5660 106.9290
341.2510 136.3870
342.2190 109.7620
343.3630 283.7910
344.9280 145.2830
345.9870 131.5960
347.3230 275.1000
348.1830 66.9619
349.1660 483.4230
350.1900 351.7120
351.1510 259.7970
352.2630 164.9600
353.2000 680.5490
354.0790 104.1380
355.2550 21.0596
356.6060 50.2381
357.4140 188.0800
358.3350 97.1712
359.2500 216.5980
360.2140 160.0710
361.2780 379.1210
362.3060 254.4280
363.3020 345.1280
364.3090 129.4030
365.1540 226.4450
366.1370 128.6240
367.1940 187.1630
368.1950 62.1684
369.2540 121.9200
370.2940 65.6375
371.2750 669.4440
372.4190 129.3700
373.4150 86.8200
374.3010 112.7950
375.2130 832.1360
376.2450 355.2380
377.2080 703.2850
378.1770 400.8560
379.1850 386.0370
380.1910 232.2420
381.1150 296.9920
381.7900 68.8247
382.9670 154.6530
384.1390 169.8640
385.2470 1450.1900
386.1910 542.8270
387.2040 611.4800
388.0580 56.4194
389.1380 152.8090
390.1800 95.7496
391.1830 292.4970
392.1640 230.6130
393.2120 754.2960
394.1940 492.0010
394.9560 42.2262
396.6210 73.2238
398.3480 66.9980
399.4290 89.1577
400.6130 145.5500
401.3260 214.5730
402.3350 215.0280
403.2740 7152.2800
404.2380 3406.0700
405.2620 512.6190
406.3390 257.4410
407.1920 194.3760
408.0710 116.9580
409.1280 115.1890
410.1060 35.2532
410.9740 27.6490
412.7900 16916.5000
413.7340 215.6190
415.2710 108.2200
416.0340 95.5994
417.1410 39.2794
418.2810 10.9859
419.1420 37.0387
420.1870 64.0900
421.1900 1191.8900
422.1740 1692.3300
423.1030 546.8160
424.3410 14.3045
425.1640 14.1085
426.2380 11.7681
427.3090 5.0961
429.1090 40.0730
429.8540 21.7840
430.5150 20.9326
432.1080 62.0175
433.2730 15.7593
434.3800 5.6465
435.2890 10.9282
436.4310 41.5642
437.4350 46.3574
438.9690 22.2323
440.3180 210.3750
441.3650 32.3741
443.0450 1.7092
444.3950 24.5997
445.3780 6.6787
446.2700 31.5386
447.1770 8.0206
450.4180 19.4620
451.6010 45.9960
453.5010 45.0934
454.3770 19.2624
455.3250 83.0273
456.0840 7.5058
457.3020 15.7675
458.3220 176.0710
459.3960 43.6851
467.3350 11.0042
468.1600 7.4624
470.4920 22.7025
472.2890 1468.8700
473.0380 202.8060
474.3580 37.2410
476.7670 16.7739
478.1230 12.6563
479.3820 32.7097
481.6440 15.7595
484.6800 15.6200
485.3100 16.6206
486.2300 26.1636
487.0330 149.4110
490.2900 6.9445
492.2530 27.4274
493.6020 89.9922
494.3490 26.6936
495.1270 30.8235
496.2350 58.5280
498.4840 18.0810
500.4020 81.5258
501.5130 169.6380
502.5630 62.1933
503.3450 31.0924
504.5130 10.2392
506.3870 5.8883
507.0710 22.0568
508.2680 26.9438
509.1690 48.1306
510.3830 45.4810
512.5330 30.7601
513.4620 24.9567
514.3810 35.4228
515.6420 97.9234
516.4290 1.3416
517.4040 37.5883
518.2640 15.3281
519.3120 22.4200
520.3820 7.2829
523.1130 42.1101
525.5720 22.2790
526.2060 42.1582
527.2210 45.1633
529.7600 23.3741
530.6210 36.1395
531.7000 72.0643
532.5120 11.0444
533.3680 9.0155
534.3320 17.2456
535.6230 31.1315
536.3360 13.2216
537.5950 3.9670
538.2160 27.0175
540.2710 49.1375
541.5360 4.4245
542.3860 25.4360
543.4560 39.9817
544.5400 10.5639
545.3830 13.3624
546.5620 64.8795
547.4310 28.7234
549.9360 18.1211
550.8200 7.5088
552.3890 15.9527
553.3900 142.1100
554.4750 24.8217
556.5460 35.2201
558.6150 60.5037
559.4550 37.3046
561.9470 41.3539
562.6690 6.6070
563.2820 22.9718
564.4190 11.5311
566.4380 28.3403
567.7280 44.7478
568.5600 13.6143
570.3170 816.7920
571.4210 980.8800
572.4360 90.3428
574.0920 31.1420
575.0600 37.8504
576.1460 44.1896
577.3450 25.3596
579.3330 13.4339
580.3610 66.6189
581.4680 42.0919
582.7640 47.3675
583.5120 11.3209
584.4240 19.9284
586.4150 26.4245
588.4960 7.5861
590.4400 3.0139
591.5400 14.1958
592.3440 8.6288
593.8050 32.8782
595.5670 12.1551
596.3900 7.2492
597.5070 11.4870
598.5900 25.1103
599.3810 52.6523
600.4760 12.9101
601.3650 13.6197
602.2440 19.6294
603.4360 9.4968
604.3400 6.9183
605.6910 24.4276
607.5110 34.5520
609.5890 6.6890
610.6340 4.6929
611.4280 5.9038
612.3270 4.7642
613.4330 427.3020
614.4310 156.9220
615.4050 71.9720
616.9400 17.1253
618.6840 7.5289
622.4450 41.0613
624.5040 23.9335
625.4520 5.3997
626.5860 25.6486
628.5190 20.7968
629.4920 32.4389
630.4240 60.1514
631.4690 6.6354
633.4820 3.4118
634.1730 12.6851
635.6060 10.8840
640.4920 29.3972
641.7430 37.5876
642.4660 93.3020
643.4990 11.6857
645.5980 45.8225
646.5870 14.4239
648.0820 3.5313
650.8180 4.3378
653.5930 5.3798
655.8240 12.8517
656.5260 13.0949
657.2970 5.2812
658.5640 22.6474
666.5080 17.9044
667.4730 16.9903
668.6270 20.1695
669.5880 20.0226
670.3780 9.7248
671.5230 15.9236
672.4430 1820.1400
673.4200 143.8130
674.4550 19.8545
679.2120 61.6007
679.8350 9.2506
687.7510 10.6215
691.5940 7.0481
694.3050 30.9911
695.4360 11.2357
697.4250 20.2312
698.4780 4.8063
702.2970 14.1983
703.5410 18.7715
709.2440 11.8520
711.5880 6.1933
712.5340 17.0488
713.4430 19.1458
714.5860 26.2151
715.4320 9.8185
719.9940 6.3792
722.7610 6.7125
723.4790 3.0373
725.6550 63.3980
727.6410 13.7632
728.4100 27.8581
729.4650 43.0250
730.1930 24.7869
731.4250 11.2838
738.2910 5.6714
739.5880 9.9974
742.3750 20.1950
743.6070 57.2146
744.4460 26.4550
753.3850 21.0754
758.5230 12.8548
798.6480 10.9871
799.5330 12.3993
802.7100 12.3974
803.3460 11.5260
815.6670 20.7379
821.4460 5.6926
834.3780 10.0171
END IONS
BEGIN IONS
TITLE=File220 Spectrum4859 scans: 6977
PEPMASS=615.3447 92527.0078
CHARGE=3+

175.1610 60.2510
176.1800 8.0008
177.1940 29.4374
178.2310 14.4705
178.8950 36.0122
183.2680 44.4796
185.1550 135.2230
187.0730 26.2025
188.0990 25.3182
194.9320 14.5238
197.1400 92.7002
199.2020 97.6404
200.2860 18.8552
201.1620 152.6000
202.7630 9.9635
207.2390 40.6654
207.9340 9.6271
209.0640 26.1342
210.2530 19.8165
211.1930 35.9097
212.1050 19.1041
213.1150 45.1741
214.1350 124.5440
215.1220 68.3916
216.1400 23.2753
216.9390 11.2745
218.1350 60.0170
219.1690 59.9493
220.1810 15.4852
220.9450 11.5279
221.9870 32.1037
223.0170 33.2548
224.1940 112.3050
225.2580 246.1750
226.3630 74.1195
227.1190 144.2660
228.3430 113.3800
229.1780 220.2090
230.1210 66.4752
231.0920 34.0529
232.3620 55.8608
233.1700 64.7189
235.0180 44.8915
238.1230 66.9019
239.6050 48.0563
240.4050 89.0667
241.1810 122.6770
242.1790 373.4320
243.2010 106.6430
244.1490 105.5000
245.1710 276.1090
246.1160 38.5559
247.2220 59.2659
249.1120 123.0060
251.1880 7.9677
252.0970 11.7580
252.9850 32.4769
254.2110 97.4779
255.3410 38.7126
256.1450 119.2030
257.1260 93.2472
258.1330 431.3120
259.1830 131.3400
260.1970 733.7440
261.1520 13.6788
263.1950 69.5763
265.1770 46.6849
266.1210 32.9908
267.1010 37.4276
268.1740 37.6081
270.2040 81.9615
271.1000 63.2270
272.1850 167.0760
273.1560 19.4323
274.2580 71.8540
275.1660 55.6237
276.1880 717.9830
277.2570 136.6290
278.2170 69.3210
279.2050 33.7811
280.1040 12.3466
281.1410 18.6782
282.1630 155.0190
283.2000 110.1710
284.1310 142.6710
286.0570 753.6600
287.1650 88.8483
288.2700 88.5079
289.1650 36.8990
290.2800 115.4280
291.1710 75.5768
292.1640 42.3486
293.1540 40.2523
294.1420 6.7615
295.1840 53.5483
296.1210 119.8650
297.3620 49.1099
298.2140 42.5699
299.3780 152.3320
300.2020 228.6610
301.2440 87.1740
302.1850 86.0426
303.2150 49.6987
304.2450 102.5450
305.1360 46.1634
306.5340 11.5045
307.2410 32.7052
309.3920 7.3867
310.3130 63.5158
311.2150 60.1488
312.2480 108.6850
313.2090 164.5000
314.2340 102.7800
315.1650 65.8760
316.1220 54.1629
317.2030 3635.0100
318.1590 423.4660
319.2150 74.6468
320.6420 107.8300
321.2520 42.0702
322.0940 33.0114
323.2840 234.9510
324.2530 742.2950
325.1930 120.8380
326.2150 18.7548
327.3210 83.0027
328.2200 85.6855
329.3430 36.7658
330.6590 106.4930
331.2820 52.2180
332.3060 34.6643
333.1370 61.8933
334.2510 107.5870
335.2810 42.9626
336.0060 11.0583
338.1260 67.2546
339.1470 112.1010
340.1260 142.8440
341.1910 316.8710
342.2040 125.4270
343.2220 424.6470
344.2950 45.8053
345.4140 55.0694
347.2430 178.5610
348.4290 86.7412
349.1650 87.9019
349.7860 6.0377
351.4300 31.9414
352.5030 12.4850
353.1780 54.7719
354.2010 141.0550
355.5670 85.9573
356.1920 205.6000
357.4760 310.2580
358.2140 236.8880
359.2620 142.4600
360.1300 171.4950
361.2920 87.3731
362.2430 43.2081
363.1090 61.0046
364.4290 53.8755
365.3310 162.1410
366.1150 66.9760
367.2400 120.3700
368.2690 27.8640
369.3530 111.2960
370.1590 60.1049
371.3620 172.5540
372.2570 158.8390
373.3000 442.0760
374.2490 84.6675
375.5280 110.5310
376.2380 244.9370
377.2430 120.9660
378.1980 40.6637
379.1380 57.9382
380.2850 222.5430
381.3220 153.2640
382.2510 141.7260
383.3260 132.9030
384.3560 132.8190
385.1400 350.4200
385.8880 265.8160
387.1750 134.6010
388.1930 237.6280
389.2280 365.2620
390.1730 99.6986
391.1520 117.0340
392.4900 75.5248
393.2270 125.0230
394.3780 1389.2900
395.2310 353.9200
396.0200 91.7942
397.5780 87.7961
398.3300 52.4223
399.2400 250.5450
400.5390 225.6360
401.4120 332.1610
402.3650 360.9090
403.2890 284.3320
404.1590 100.1800
405.2250 447.6160
406.2500 86.5750
407.2150 221.0620
408.1000 159.5370
409.2580 119.7020
410.2740 102.0440
411.3650 397.7110
412.5580 120.5360
413.2230 174.3220
414.3240 203.0390
415.2290 187.7550
416.4180 129.0480
417.1980 133.5750
418.1990 20.5942
419.3470 119.4740
420.2730 36.7835
422.1630 53.4337
423.0930 95.5676
424.1580 118.5130
425.3630 81.8017
426.2890 119.9810
427.2960 124.2770
428.2770 71.4941
429.3540 441.0010
430.3170 2609.4700
431.3220 789.6640
432.3730 163.9720
433.3460 53.4756
434.3810 72.9788
435.2820 164.1170
436.9450 112.6240
438.1900 125.1180
439.3560 167.3050
440.3260 205.8850
441.4550 251.3250
442.2960 280.3830
443.2840 68.6376
444.2610 132.2170
445.2010 40.9669
446.1030 191.7100
447.6480 166.6990
448.3770 38.7720
449.5380 373.2580
450.3370 183.7930
451.0870 104.8640
452.3130 175.5910
453.2980 135.9390
454.3240 133.0340
455.3430 60.2100
456.4350 500.8990
457.3520 185.3740
458.3160 953.3580
459.3370 233.1550
460.4320 314.9940
461.6520 167.4320
462.3280 165.4390
464.0920 138.2870
465.3970 999.2210
466.3770 232.0900
467.3370 160.8180
468.2770 179.3350
469.2680 427.0350
470.0990 116.6500
471.5150 176.4820
472.3140 60.8111
473.2600 301.5020
474.2460 153.0980
475.1940 69.6947
476.1820 186.9040
477.2470 77.1299
478.2210 80.1247
479.5360 5.5105
480.2860 124.1710
481.3180 237.0110
482.2740 429.4700
483.2120 57.3741
484.2460 426.5220
485.3230 235.7030
486.3870 201.0040
487.1220 92.6228
488.2500 157.5420
489.4580 281.3880
490.4210 169.3030
491.2630 30.9764
492.4090 57.5444
493.5720 251.8960
494.3530 46.1724
496.1520 43.7185
497.1910 50.9970
498.3770 190.8380
499.4080 223.4840
500.3800 706.8200
501.3410 6130.9400
502.3080 1531.3500
503.2580 594.9010
504.1090 30.8768
505.0370 97.2434
506.2520 34.6644
507.1950 201.0520
508.1150 195.7320
509.2730 1062.5500
510.2890 1378.5800
511.2950 448.5690
512.3950 132.0950
513.6380 553.3460
514.3090 489.1650
515.2960 223.9110
516.2590 471.3510
517.6960 224.5920
518.3670 697.2560
519.5510 288.1980
520.4490 2672.0200
521.5380 273.9820
522.7930 1582.8000
523.8640 254.6760
525.0890 400.6500
526.3550 282.9920
527.3020 2220.2300
528.3280 782.6790
529.4180 5310.1600
530.2780 258.0230
531.1090 86.0103
531.9000 60.8324
532.5800 94.9993
533.4030 180.8670
534.4070 176.3290
535.2730 636.0520
536.3310 286.6760
537.2710 149.7910
538.0860 324.2750
539.1060 298.7420
540.1600 289.3650
541.5620 223.9600
542.5080 160.1710
543.5760 534.6210
544.4440 169.8240
545.3170 183.5410
546.6190 97.8008
547.3490 43.8084
548.4090 380.7340
549.4320 169.8150
550.6890 368.2580
551.5970 380.7550
552.6780 59.3152
553.4080 277.7620
554.4720 801.9370
555.2890 239.4400
556.2940 188.9160
557.5760 277.4980
558.3680 366.8270
559.5490 90.0263
560.4040 122.4040
561.3790 172.3220
562.5580 519.7030
563.3750 159.8840
564.4070 91.4543
565.1790 255.0270
567.1710 223.1230
567.9740 162.2750
568.6060 14.9142
569.2230 392.0270
570.3840 376.4530
571.5140 1314.8400
572.3610 9209.2100
573.3680 2231.0100
574.4180 280.2750
575.3740 326.3570
576.3890 272.1450
577.4280 94.4859
578.6310 167.0870
579.4670 482.3050
580.4280 2587.8500
581.3200 365.7570
582.0960 328.5210
582.7060 123.9890
583.5910 619.1870
585.0220 442.7880
585.8450 250.8100
586.7550 508.3400
587.3750 454.1140
588.1870 772.6200
588.8240 107.9040
589.8890 178.4760
591.0880 162.0260
592.2460 441.9870
593.1220 577.9730
594.0580 1259.0400
595.1140 689.6390
595.7660 33.7916
596.4130 390.2020
597.3200 2863.0300
598.2730 3165.6300
599.2190 892.9910
600.2190 555.8250
601.3990 309.2860
603.0580 4244.9500
603.9320 2011.1500
606.0660 3502.3100
607.0580 1899.7500
608.5090 136.3240
609.1460 147.7960
614.4060 72.2447
615.4290 164.3060
616.3910 177.3390
617.1220 9.4254
617.8470 49.5671
619.5710 49.1030
621.2180 59.5865
622.5040 1643.5500
623.4190 773.8270
624.4230 185.2930
625.3550 127.7430
626.9520 127.2960
628.0260 1227.7400
629.0540 263.9220
629.9420 63.0915
630.6870 84.5907
631.4260 15.3495
632.3720 84.9488
633.3730 1194.9900
634.4310 334.6860
635.2420 67.5158
637.0230 3787.5200
637.8630 202.3500
639.2390 108.5940
640.3790 4731.7700
641.4570 988.2300
642.5860 166.6810
643.7940 171.2160
644.4530 107.8260
645.3820 135.6620
646.5790 181.1760
647.6690 66.9791
648.5040 49.8485
649.5960 30.6110
650.5590 388.9950
651.8570 198.2930
654.2520 180.6990
655.4130 144.2080
656.1860 92.9149
657.1720 143.9820
658.4510 193.2050
659.5230 1774.7100
660.3750 556.1620
661.7820 53.7170
663.4800 2730.2100
664.5520 561.7870
665.7110 103.9010
666.7140 33.2033
668.7150 161.2990
669.4610 25.9961
670.4530 93.6191
672.5030 7368.3900
673.4060 907.4550
674.4240 251.9720
675.4540 125.8360
676.6150 247.6370
678.3030 62.9851
679.5930 264.5790
680.4340 66.2578
681.1670 150.3530
682.4390 329.5660
683.4730 89.9468
684.3520 23.9768
685.4870 2956.4100
686.4990 948.0660
687.3650 244.7090
688.3580 190.7550
689.5430 64.8897
690.3780 18.3085
691.2880 39.7361
692.2350 154.3220
693.3370 107.9900
694.3880 66.0100
695.5200 217.9900
696.4270 60.1214
697.5870 163.6660
698.9570 1700.6400
699.9190 673.8330
700.6520 96.1456
701.4420 175.7520
702.3640 208.0700
703.3650 178.2410
704.3540 444.7680
705.2620 227.0580
706.1480 65.7560
708.0040 7062.8000
708.8950 737.2320
709.5950 267.5690
710.8060 158.0280
711.7360 159.0250
712.5570 91.4774
713.5080 53.9863
714.9690 81.2459
715.7330 214.5590
716.7500 75.1636
717.4810 54.7797
718.2370 153.3930
719.2810 166.2150
720.3900 69.1801
721.5480 159.3230
723.0650 151.9860
724.1020 282.7070
725.1470 114.9180
726.2540 251.2090
727.3500 34.4773
728.6540 420.1900
729.4780 97.4280
730.5850 26.5125
731.7880 235.5410
732.7090 38.7378
733.3440 100.9110
734.3600 160.9530
735.2060 200.7840
736.3520 54.6708
737.0810 79.0786
737.7450 92.0344
738.3760 34.8220
739.1520 307.1710
740.1120 173.9280
741.3050 91.9204
742.4580 55.6961
743.5350 542.5990
744.4190 122.4400
745.5390 260.3050
746.4760 480.2740
747.4070 215.3650
748.4280 186.6130
749.6060 329.4170
750.5190 55.0553
751.4450 177.7650
752.6530 2939.6900
753.4640 428.2200
755.5990 2073.5000
756.4810 345.2910
757.3650 165.2900
758.7820 252.1870
759.6220 188.6230
760.5230 204.6170
761.5260 150.1890
762.8380 237.4390
764.6100 4668.0300
765.3720 431.4350
766.2080 86.7657
767.3910 235.5040
768.5150 155.3430
769.3830 1116.1400
770.4180 1139.1800
771.4500 419.8960
772.4360 173.9830
773.8070 145.8380
774.4460 64.2409
775.5780 310.3130
776.6630 71.8113
777.6610 67.4808
778.4160 281.3160
779.4030 73.6940
780.3200 202.9240
781.2530 79.3497
782.5550 210.0460
783.7620 828.1190
784.5400 1157.3300
785.4500 141.8660
786.1900 155.7180
787.4380 2723.0500
788.4810 1444.4100
789.6140 140.1900
790.5980 216.6260
791.7710 191.5790
793.1180 9338.1900
794.0390 1009.9700
795.5430 149.9600
796.3910 44.5027
797.3490 238.4010
798.3650 245.8920
800.5070 4999.0600
801.7430 3149.2500
802.5140 2670.3100
803.5480 340.4370
804.6240 177.7460
805.4980 221.6890
806.5440 130.4880
807.6990 210.6010
808.6130 257.2220
809.5370 55.4420
810.2990 32.3330
811.8170 180.7620
812.6480 236.1650
813.5920 125.7990
815.3070 407.0280
816.4630 546.1510
817.4940 209.0990
818.4300 193.8550
819.3090 274.7530
820.2950 141.8930
821.2460 127.1070
822.2810 311.8070
823.2650 172.1410
824.0600 35.2332
825.7070 169.0670
826.4020 109.5250
827.3830 40.1820
828.4250 149.3890
829.6290 226.2700
830.7100 228.1210
831.6470 98.1562
832.3240 8.0172
832.9360 9.3010
833.6390 33.5064
835.3880 302.7660
837.7540 187.3070
838.5210 157.2930
839.3990 13.6556
840.7070 1739.3900
841.5700 594.2820
842.6430 28.6973
844.3450 221.4760
845.6710 47.6171
846.5310 134.1680
847.3820 85.5139
848.6820 212.2370
849.6990 6121.5200
850.4590 1022.5200
851.1900 209.8200
852.7280 42.0771
853.6340 92.0050
854.7700 126.6300
856.7250 52.0318
857.5740 91.6423
859.0640 231.2530
859.7790 12.3336
860.7170 9.6066
861.4090 20.5051
863.5730 19.8991
864.4980 119.1910
865.9070 150.2880
866.8550 69.2070
868.4060 22.9142
869.3230 51.9055
870.3640 67.7345
871.4700 133.4580
872.5560 168.5520
873.4460 136.7540
874.3980 73.4385
875.4530 29.7079
876.6300 80.7231
879.6320 103.5280
880.9400 106.9340
881.6360 27.0706
882.6040 183.3370
883.3860 129.9940
885.4910 53.7333
886.6590 106.6190
887.5890 118.3640
888.5340 147.2250
889.4810 115.2150
891.6800 124.1940
892.5630 30.3865
893.7500 46.7057
894.8500 93.1075
895.7330 45.9240
896.5730 26.0928
897.6360 594.3790
898.6150 185.8260
899.2190 9.8302
900.5230 183.2820
901.6360 30.0116
903.9730 23.6433
905.1650 97.8550
907.6070 47.2695
908.7140 13.6227
910.1340 41.3908
911.6110 328.7760
912.5950 47.3631
914.4860 98.4463
915.5070 1855.6600
916.4640 656.9700
917.5100 298.6310
918.3000 224.2300
919.1200 75.8737
920.4380 91.8777
923.1610 47.9502
925.5990 152.6030
926.5470 19.5935
927.5870 59.8904
929.4780 4710.9600
930.5640 1302.8900
931.5980 206.6450
932.5360 194.7280
933.7200 59.0729
935.4890 43.4806
937.3250 125.0100
939.3640 81.4414
940.4860 92.2227
941.4980 49.8031
944.6540 87.8581
945.4740 106.8770
946.4390 76.5304
947.6170 69.3854
948.3620 27.5854
949.4150 17.9940
950.5220 24.2740
951.5240 65.8578
952.3810 60.3138
953.5140 180.5460
955.8440 43.0680
956.4470 39.3718
957.7680 47.7304
960.6900 19.9436
961.5750 25.9593
962.4810 33.7075
963.3440 40.3018
964.8200 131.6890
965.4600 47.0426
967.6340 10.9946
968.3470 66.7897
969.5620 88.2276
970.6200 98.5457
972.4890 85.1313
973.5200 82.8079
975.2920 68.2740
976.6680 26.6657
978.7480 36.9118
982.5740 74.5925
983.5780 20.2935
985.4360 78.9292
986.5700 183.1130
988.6420 59.2004
989.5620 44.3934
992.5010 50.6838
993.7020 56.3985
994.9660 109.6780
997.6720 159.6020
998.7830 66.0947
999.8250 44.9559
1000.8710 91.7439
1001.6190 117.6040
1002.4290 124.4630
1003.5940 263.0270
1004.5460 73.7185
1005.5050 44.9453
1009.6420 37.4414
1010.6450 41.1767
1012.8620 56.2691
1013.5120 28.4210
1014.8070 60.2636
1016.2170 57.7534
1017.7220 30.0942
1018.8830 15.7591
1021.5020 22.8083
1022.6300 94.5717
1023.7890 45.5757
1024.4230 33.1162
1026.6000 147.0760
1027.6190 58.9648
1028.9360 117.7040
1029.9070 83.4143
1030.8350 119.7850
1031.7980 73.8890
1032.4170 15.1251
1035.5090 10.8740
1036.4970 16.6797
1039.0940 16.5708
1039.7470 44.6092
1040.6660 313.3530
1041.5780 178.5310
1042.5350 55.5167
1043.6550 22.5898
1044.3820 180.5770
1045.7570 205.4000
1046.5700 49.9323
1048.8530 42.5918
1051.8770 11.8411
1053.5910 73.3657
1054.7100 86.5786
1055.5390 24.9610
1057.6070 982.9000
1058.5430 497.4570
1059.5120 270.1630
1064.5830 40.0659
1065.6690 54.9687
1066.6080 38.5635
1069.8220 27.6269
1070.5310 5.3530
1073.6240 29.4204
1074.6650 31.4191
1075.5690 17.5904
1076.7500 38.3554
1079.6530 18.7230
1081.3160 24.1759
1082.9670 122.4010
1083.8000 82.0727
1084.5890 111.4060
1086.0090 43.8190
1087.7220 22.9870
1097.7040 42.4603
1098.5220 21.4973
1099.4590 51.6212
1100.4490 34.5495
1102.5160 21.9151
1103.5160 45.5933
1111.8820 16.8696
1113.5750 61.5252
1116.8450 70.0352
1124.6610 45.5504
1125.6240 41.0152
1126.5140 43.4890
1131.7340 28.4452
1141.5460 463.7050
1142.6050 746.4530
1143.4790 297.9250
1144.4460 52.1677
1152.7500 41.8426
1155.8800 24.7775
1159.5550 1965.6300
1160.6750 759.7040
1161.5760 202.1580
1166.5920 34.6005
1170.0650 8.2186
1171.5740 167.8580
1172.7520 120.7690
1173.8800 14.6587
1174.5670 62.1784
1185.9130 34.0300
1187.5720 70.2027
1188.9110 88.3616
1196.4760 22.8532
1203.8920 40.7534
1204.5540 111.7000
1205.3250 74.3007
1208.2640 11.6394
1210.6610 21.3130
1238.6400 30.9937
1244.6410 128.7830
1245.6750 36.0735
1255.4970 156.7340
1256.7580 21.0969
1264.4230 26.1366
1271.4300 32.1113
1273.8430 42.5770
1307.7970 42.6098
1308.9560 59.1168
1309.7000 13.8262
1317.6370 24.4039
1327.0630 64.0910
1327.9290 31.6358
1343.7970 165.2100
1344.7650 53.2586
1360.0200 40.7295
1379.9270 27.5923
1397.7000 104.7620
1414.7120 295.2780
1415.7550 96.4336
1417.1010 36.4777
1457.9200 54.8437
1471.9700 50.0136
1494.9810 28.6517
1501.0950 21.6173
1510.7960 29.2565
1568.3340 43.0960
1568.9830 44.6585
1584.9620 83.0770
1585.9020 8.6275
END IONS
BEGIN IONS
TITLE=File223 Spectrum908 scans: 2842
PEPMASS=792.8626 31330.7109
CHARGE=2+

224.1960 12.4691
225.2200 18.5516
226.2450 18.9910
227.1420 2.9785
228.2880 9.1285
229.2000 9.5291
231.1670 31.8846
232.0930 10.4828
233.1700 49.7535
234.2010 34.3592
235.3440 7.5419
236.1190 2.6470
237.8590 41.7319
240.1670 29.7556
241.4230 34.4048
242.2320 41.7798
243.1600 116.0210
244.2330 101.6910
245.1500 125.0580
246.1770 36.1525
247.1770 11.1367
248.4580 20.2364
249.2730 14.5570
251.1900 14.7222
252.1190 48.2590
253.1050 10.0462
254.4100 30.4510
255.1670 4.7328
256.1220 33.4224
257.1760 21.1126
258.1760 13.3726
259.1570 61.1838
260.4150 29.2493
261.2310 61.2387
262.1680 148.1000
263.2360 45.0317
264.1210 42.9039
265.1380 25.9840
266.1780 79.9755
267.0330 29.1652
268.0920 6.3871
269.1510 29.8742
270.1840 106.7340
271.1450 31.3309
272.1700 101.4100
273.2220 22.5412
274.1350 75.6718
275.1590 62.9537
276.1920 71.0476
277.2270 45.2330
278.2600 135.5090
279.1260 87.7076
280.2130 38.0201
281.1810 27.0563
282.3990 74.3263
283.2510 52.8547
284.1290 78.7462
285.3840 29.8578
286.1720 71.5655
287.2150 41.4199
288.1560 66.5766
289.2130 83.2052
290.2370 63.7460
291.0700 33.3999
292.1140 40.4744
293.2880 60.3135
294.2410 38.9883
295.2010 52.8364
296.1550 126.1970
297.1430 135.7930
298.1420 105.1020
299.3080 24.7379
300.2040 284.4080
301.1280 93.4294
302.0910 94.3156
303.1120 126.2520
304.2090 88.8469
305.2320 54.0920
306.2240 50.5903
306.9450 11.8633
308.3840 47.0374
309.3150 40.1731
310.2620 46.6202
311.2430 60.9817
312.2290 235.4570
313.3000 103.6160
314.2470 319.9930
315.2400 403.1460
316.1100 180.2500
317.2580 66.4114
318.1470 257.1300
319.4300 35.0152
320.2750 41.9041
321.1340 40.8913
322.2700 48.1115
323.3450 58.4924
324.1870 40.0904
325.2880 59.8991
326.2080 84.4515
327.2470 22.0190
328.1360 17.6560
329.2110 76.2462
330.1730 83.1313
331.2920 395.2740
332.1960 646.7490
333.0860 703.4880
334.1540 219.7310
334.9980 12.3107
336.2820 62.4320
337.1680 95.9313
338.1320 56.5696
339.3710 58.3663
340.2180 67.2229
341.2530 61.5070
342.2270 61.8745
343.2140 88.7923
344.2790 28.4509
345.3240 41.7811
346.2420 39.3811
347.3600 52.7193
348.1980 159.1170
349.2080 106.1020
350.1220 46.4163
351.1930 54.5694
352.3690 39.3296
353.1670 91.2311
354.2140 287.3620
355.3050 168.4600
356.2350 110.9220
357.2840 89.4204
358.1860 222.6750
359.2050 95.0141
360.2030 81.9066
361.2290 31.7434
362.2120 79.0703
363.1630 28.6377
364.3290 27.6880
365.2580 123.9740
366.2100 71.8151
367.3280 16.8462
368.2440 93.6571
369.2560 577.6350
370.1950 172.8150
371.1580 413.6110
372.2280 167.4220
373.2160 263.8520
374.3150 79.9632
375.2790 98.6037
376.2660 59.8074
377.2090 49.6843
378.2340 43.5631
379.4780 28.7896
380.2080 79.6879
381.2040 102.9260
382.2090 77.6508
383.2060 23.1284
384.2440 162.0940
385.1250 207.7530
386.2370 293.7210
387.3680 97.4882
388.2430 65.7810
389.3480 137.0520
390.2020 433.8860
391.2530 197.3850
392.2700 94.0647
393.2380 92.1374
394.3630 111.4910
395.4130 46.4364
396.1830 84.5134
397.2030 79.2277
398.3230 110.5850
399.2340 219.0030
400.2640 203.1620
401.3220 134.1900
402.2300 185.3190
403.2660 202.0830
404.2500 336.9790
405.2690 107.9030
406.2440 51.4411
407.2770 31.1887
408.1940 115.2100
409.1350 74.7990
410.0930 66.7970
411.2500 225.5460
412.2010 138.0240
413.2600 105.3780
414.2900 59.8157
415.2250 201.5220
416.3280 151.6180
417.2050 295.2870
418.3160 137.2100
419.2640 252.6300
420.2260 79.4442
421.2380 25.6833
422.2770 151.5470
423.2940 53.6767
424.3890 36.5516
425.3690 78.5456
426.2690 116.6200
427.1870 186.6640
428.2730 156.0210
429.2110 462.2820
430.1570 142.8590
431.2000 141.2400
432.3040 161.1620
433.2470 58.6998
434.3420 151.5070
435.3210 46.5952
436.3630 46.2234
437.1690 54.5219
438.4420 70.3922
439.2910 159.4500
440.2240 73.4819
441.3590 63.3504
442.1880 284.5920
443.2630 236.8780
444.2550 394.0360
445.1630 447.5620
446.2360 807.1390
447.2070 382.1120
448.3320 137.1070
449.2980 97.9167
450.3690 61.9594
451.3160 47.9853
452.3620 153.6730
453.2290 10.4982
454.2990 68.0546
455.3560 54.7066
456.2010 197.6110
457.2920 159.5830
458.2870 101.6090
459.3950 161.1280
460.2940 1349.6300
461.3830 469.8600
462.2070 875.1380
463.1920 233.4890
464.3770 65.3618
465.5440 74.3476
466.2760 146.9420
467.2530 142.0050
468.3970 66.6208
469.2700 80.4542
470.2030 146.6420
471.2030 222.3470
472.3270 209.7480
473.2630 108.0700
474.2970 185.1180
475.4550 52.7481
476.4210 33.7903
477.4680 64.0649
478.1240 49.0340
479.2740 384.3180
480.2990 91.2261
481.3820 26.6631
482.3200 225.4240
483.3460 142.2340
484.3470 271.8540
485.3650 66.0350
486.2540 270.6210
487.2650 149.7380
488.2810 275.7600
489.2110 373.5020
490.2830 220.2010
491.3190 64.6776
492.2980 107.7790
493.2950 113.6300
494.3650 101.1950
495.3240 84.4552
496.2410 91.4373
497.1730 80.1024
498.2370 183.7170
499.2720 428.5440
500.2460 438.1820
501.2960 178.3110
502.2700 173.1940
503.2300 84.4025
504.3410 149.2870
505.3310 88.2403
506.2710 91.9543
507.3830 95.5361
508.3400 139.8110
509.5360 52.2062
510.4060 39.2721
511.2150 83.0755
512.2970 246.1520
513.2830 141.4850
514.2950 136.5140
515.2550 287.4410
516.2550 431.4470
517.3090 1605.5200
518.3260 180.3000
519.3460 178.9650
520.3150 87.5566
521.3650 84.7586
522.3620 170.7840
523.3290 69.7314
524.3260 46.6697
525.4580 70.0547
526.5530 115.2510
527.3580 102.0890
528.3120 151.1090
529.2910 332.3240
530.2460 437.1950
531.2500 679.0210
532.2240 136.1030
533.3070 212.4810
534.2730 310.8900
535.3430 53.1220
536.3290 105.6520
537.2670 165.5100
538.3190 201.0950
539.3430 738.0260
540.2780 383.9180
541.3110 216.1660
542.2710 100.8940
543.2700 34.5935
544.2070 93.0706
545.2790 131.8600
546.4860 54.4347
547.2500 642.3110
548.2640 235.6250
549.4190 113.0870
550.3320 114.0120
551.1820 71.4506
552.1230 110.3440
553.2690 70.3918
554.2550 86.6407
555.1860 238.2980
556.2130 273.7090
557.2160 682.1150
558.2790 577.2970
559.2760 679.8900
560.2110 40.9261
561.1560 199.1930
562.2830 153.1460
563.3770 122.7860
564.2900 137.6900
565.3970 194.2640
566.6150 60.5288
567.3270 154.2210
568.3060 34.4043
569.9470 826.7770
571.1180 172.1470
572.3220 315.8430
573.2830 691.9920
574.2910 164.7450
575.2830 1347.3000
576.3600 1133.5100
577.3770 147.4270
578.3050 44.5403
579.4450 38.7120
580.3940 61.3025
581.3590 119.6480
582.3410 127.8620
583.3110 125.6380
584.3460 116.7160
585.3760 223.0170
586.3610 81.4794
587.3470 83.4141
588.2750 25.1838
590.2750 933.7410
591.3030 222.2050
592.3050 95.4369
593.3480 3026.0600
594.4550 79.8378
595.2870 78.4998
595.9670 14.6287
596.6570 52.9741
597.6430 38.9260
598.6210 33.8250
599.4190 87.4776
600.3550 154.3910
601.2930 441.2030
602.3270 647.2610
603.2940 113.0390
604.1990 38.4850
605.3810 90.0632
606.3640 156.7610
607.5680 102.3080
608.4400 84.3580
609.4600 87.5427
610.3440 131.5910
611.3670 205.2070
612.3180 420.4470
613.2050 212.7930
614.0830 57.4664
615.4450 38.6553
616.3570 289.0920
617.5190 123.8260
618.3350 599.2480
619.3850 413.9630
620.4160 72.3110
621.2720 84.8790
622.1900 37.6392
623.2870 19.6196
624.3890 83.8157
625.5090 755.6680
626.3750 1008.2000
627.3690 313.3430
628.2710 689.2610
629.3020 940.6930
630.3180 1060.2500
631.3930 155.8790
632.2300 54.4681
633.4290 82.7698
634.5560 903.8140
635.4210 111.6020
636.5010 149.4330
637.3400 375.8760
638.4300 73.7876
639.3720 67.5133
640.4970 58.3371
641.3960 84.8008
642.3750 160.0160
643.3830 141.4290
644.3650 147.7210
645.4230 188.2530
646.3120 1568.0200
647.4230 1665.5800
648.2840 208.7680
649.3420 15.0328
650.3610 64.6335
651.4640 60.2281
652.6220 17.0564
653.3410 22.9155
654.3890 38.5208
655.3520 18.7276
656.8240 49.1935
657.9580 43.4781
658.7540 97.9836
659.4260 21.1235
660.3750 201.4140
661.2930 354.7670
662.3570 253.0940
663.4320 329.9330
664.4240 1046.0600
665.3960 913.5960
666.6750 72.0383
667.5040 60.9224
669.1880 77.1964
670.3540 66.2669
671.4990 65.4279
672.5170 6.9793
673.4580 49.6159
675.0220 25.2347
676.1970 100.9260
677.5090 280.3050
678.4190 369.8090
679.3330 887.9630
680.3450 49.4003
681.3880 57.4886
682.3940 94.1696
683.5190 89.2281
684.3800 140.2630
685.4400 115.3590
686.4360 97.9603
687.5380 89.9506
688.4080 65.8317
689.3950 56.2140
690.1490 34.8161
691.2990 58.9769
692.7570 68.3955
693.4360 67.0680
694.5770 182.9550
695.4230 165.8560
696.4030 103.8660
697.4240 88.5377
698.9800 237.0150
700.1730 78.6958
701.3070 621.5390
702.5080 305.1810
703.3860 357.7070
704.4090 174.1860
705.5150 90.8882
706.7580 271.1140
707.5270 170.9380
708.2930 113.9210
709.3330 127.4670
710.4510 110.0270
711.4120 105.2860
712.3450 116.2820
713.3930 1694.0800
714.4230 844.3590
715.8270 630.5620
716.5910 410.5640
717.4040 193.6210
718.3610 53.5068
719.4600 92.8575
720.5450 83.2465
721.4040 166.9190
722.3750 168.3280
723.4300 182.3410
724.4350 49.1602
725.3140 65.8995
726.3160 85.1823
727.4270 190.1420
728.4520 2156.3600
729.4410 3417.5700
730.4510 145.1020
731.3980 345.2990
732.4520 230.9430
733.3950 427.1230
734.5200 81.1391
735.5390 256.1560
736.4190 104.0770
738.2300 71.7343
739.3430 199.1680
740.4440 228.7960
741.4730 210.9610
742.2610 285.3640
743.1760 77.0322
745.0190 147.4330
746.1270 175.4630
747.2830 214.8210
748.4270 493.8490
749.4570 621.7620
750.3400 293.4430
751.3200 159.1870
752.3520 174.8480
753.7320 237.2170
755.0500 73.2179
756.3550 396.8420
757.3860 984.7190
758.4340 1318.8300
759.5310 697.6550
760.5540 242.4800
761.5340 117.1150
762.7090 239.7330
763.4810 481.9590
764.6220 277.9500
765.6300 347.1080
766.6200 562.8320
767.5890 206.0250
769.0310 260.9820
770.0800 166.8950
771.1640 173.1210
772.2240 68.7670
773.3820 211.1410
774.5730 5528.7400
775.4660 13810.9000
776.4190 6841.6200
777.4850 181.9590
778.5480 165.5560
779.4620 24.6803
780.3510 2043.5700
781.4060 163.1210
784.0470 6147.4300
784.8990 965.3940
785.8430 58.1076
786.7310 7.8604
792.5840 18.7689
794.3920 13.1796
799.6990 10.8111
800.5160 12.0672
804.5500 14.8097
805.5340 15.7163
806.3590 9.0717
810.0270 30.9495
811.6440 20.4073
813.4850 45.6538
814.7470 22.8020
815.4810 10.3311
816.5440 22.1202
817.1510 56.4125
818.4620 15.9959
819.5700 8.8240
820.4620 18.4729
825.4810 8.2503
826.4340 3.4492
829.2140 8.0109
830.5910 35.1729
831.3460 11.0818
832.4200 62.2307
833.5130 58.3827
834.4420 21.8169
835.5290 13.5272
836.4020 41.6463
837.4590 32.7432
838.4670 12.5827
841.5370 11.2288
842.5040 19.4795
843.2610 16.9170
844.4540 140.7080
845.4710 32.6811
847.3840 5.9360
848.4250 86.1407
849.5320 15.8951
850.4280 728.0180
851.4490 406.9270
852.4560 60.0877
854.3920 271.1590
855.4540 70.3085
856.6430 12.9223
857.2770 11.5965
858.5090 8.8177
862.1970 5.7577
864.6550 3.3850
865.2890 8.0603
870.4040 15.3636
871.5640 60.0258
872.3790 1048.2800
873.4370 393.2700
874.4040 126.9020
875.6010 8.9066
877.5060 22.2691
878.4290 4.6524
879.3690 19.5980
881.4850 50.5839
882.6190 27.3026
889.4730 37.2855
890.4640 110.8400
891.5190 27.5855
893.6150 6.1508
895.4360 22.4888
897.3830 11.8205
899.4180 37.0455
900.3510 13.7678
903.5540 13.3743
904.4850 12.1281
907.5410 991.2930
908.5720 511.3670
909.5470 211.2940
913.3810 13.2000
914.5920 21.0171
915.2200 13.2296
918.6000 17.7091
919.5240 7.4162
921.5930 11.4113
922.5890 16.8814
923.5410 31.6299
924.5500 4.7766
929.5310 22.0358
931.4740 75.2489
932.3760 9.7755
933.5160 26.5192
935.7560 22.6645
939.2740 12.5035
940.8260 22.8550
941.5340 113.0410
942.5130 97.3887
943.5160 26.6022
947.5970 10.2445
949.4260 7.2995
955.5630 13.4561
957.0810 6.8225
959.4400 605.4320
960.4450 185.3820
961.3610 68.0376
961.9690 3.7157
963.7960 5.7206
964.5200 3.7139
965.6440 28.8273
966.4710 7.4512
968.6200 31.9439
969.3170 5.9531
970.0960 5.8101
973.6130 8.7796
974.5440 16.9793
976.5150 61.3180
977.6760 81.9618
978.3070 8.2178
985.0600 21.7891
988.7090 12.0229
989.6620 50.5835
990.6830 5.6429
991.6940 46.2974
992.4520 21.7553
994.5220 546.8900
995.5480 133.0130
996.5510 78.6820
998.0660 6.9956
1001.6190 46.7582
1002.7890 19.1091
1009.5980 7.2722
1010.6580 60.5913
1011.3560 41.9197
1012.7360 11.9722
1015.5940 20.7441
1016.4460 15.9319
1017.5450 15.7608
1018.6090 4.0682
1019.6780 13.0461
1020.3450 6.7384
1021.5620 10.8113
1026.5620 10.1372
1027.7270 49.3322
1028.6070 104.3380
1029.5160 61.1207
1030.7710 11.3756
1033.6340 108.1100
1034.5470 40.4939
1035.4480 14.7014
1038.6560 5.3610
1043.8780 9.4362
1046.5630 281.5860
1047.5230 137.8030
1048.1240 25.2391
1048.7830 12.2269
1049.5760 11.0336
1051.5710 1208.4800
1052.6250 637.4580
1053.6010 110.9140
1055.6590 32.9582
1056.8750 13.7425
1057.6710 21.4913
1058.4380 4.9455
1059.4200 51.5055
1060.2920 27.7636
1063.4460 19.7316
1064.5670 4.6940
1065.6360 25.4140
1066.4870 11.4339
1067.6130 4.7263
1069.6110 8.7851
1070.5360 23.7768
1071.8080 32.8935
1073.2130 17.2883
1075.7140 4.4754
1076.6240 20.2980
1078.6660 45.9930
1079.7190 6.8011
1081.8660 15.5982
1085.2150 37.0644
1086.0370 18.0378
1086.6560 37.9340
1087.8490 50.4184
1088.7080 18.2128
1093.6530 24.0873
1094.6500 27.3797
1095.7330 9.3094
1097.7630 9.6331
1098.6290 11.9208
1102.6170 26.1446
1103.6470 108.1090
1104.5520 55.8593
1107.4460 15.9062
1109.7880 6.6546
1110.7390 19.0423
1116.9790 33.6206
1118.5670 20.2077
1120.6910 288.7420
1121.6400 112.0060
1122.8730 12.9574
1127.3440 17.1531
1136.0410 18.1618
1138.6850 1504.9700
1139.6330 796.0990
1140.7340 219.6420
1141.5430 41.9748
1144.7170 11.0368
1147.7130 9.5816
1150.5780 15.2339
1156.5380 8.4015
1162.5630 8.4548
1163.4940 4.8669
1166.9880 9.7866
1169.6960 19.7287
1175.6970 6.1443
1179.6350 10.8248
1180.7300 56.5526
1181.6130 21.2264
1182.8060 11.9148
1185.7070 16.5539
1188.4930 42.3235
1189.6400 30.1338
1190.7030 9.4071
1195.4790 24.6236
1196.3770 9.5522
1197.6610 6.3753
1198.6360 64.5108
1199.8240 99.7930
1200.5470 13.5259
1201.7710 17.8809
1202.7600 3.8672
1207.8500 15.7757
1211.6880 11.0171
1212.6150 5.5789
1215.7420 24.6898
1216.6280 426.4500
1217.6610 298.7590
1218.7890 76.1363
1219.8540 11.7712
1220.7790 13.4378
1221.7060 16.9951
1223.6540 14.8712
1231.7570 37.0513
1232.5320 7.5847
1233.7490 16.3913
1234.5960 9.5799
1235.5780 5.3418
1236.7050 11.2155
1237.7790 17.6433
1243.6760 8.3436
1247.7660 9.3800
1249.7800 85.1183
1250.8070 41.6970
1251.9230 22.7955
1255.6490 61.8495
1256.8050 67.6469
1257.7270 32.8605
1266.4890 11.0540
1267.7490 229.3640
1268.7710 193.3460
1269.8220 93.8933
1273.6580 225.3400
1274.6550 66.7964
1275.6120 57.0387
1277.8210 15.2088
1281.5820 14.4097
1283.5500 19.2394
1290.6970 16.6829
1294.6040 33.3280
1295.5860 13.7641
1302.9300 16.4445
1307.6980 5.3820
1314.7840 14.7747
1316.1070 3.9978
1320.7670 13.4155
1326.7350 6.5041
1335.5850 16.0108
1338.6180 9.6750
1339.5260 4.6688
1348.7080 18.7570
1352.8570 8.0971
1353.6170 15.2350
1356.7260 9.0988
1358.4230 7.5326
1359.8740 19.1111
1363.6160 11.7088
1365.7050 13.1599
1371.0050 29.6169
1374.8390 13.6008
1375.8410 8.5054
1382.9870 35.5012
1392.7090 82.0446
1393.8780 82.9166
1394.9280 56.2604
1396.0340 46.9347
1397.5650 97.6800
1398.5690 9.1051
1402.6420 23.6504
1409.8020 8.3267
1410.7790 407.8490
1411.7650 280.1160
1412.8410 106.3960
1413.7370 22.7045
1414.6110 5.5575
1420.6650 14.0715
1423.8840 8.4520
1427.8130 10.2770
1428.7240 96.2614
1430.7180 157.6920
1431.8660 167.6520
1432.8350 43.2789
1440.9080 11.7511
1545.8780 9.0859
1586.2060 12.9725
END IONS

BEGIN IONS
TITLE=File223 Spectrum918 scans: 2854
PEPMASS=449.7596 34722.6602
CHARGE=2+

127.1150 19.5136
129.0880 258.2440
130.1210 154.5830
131.1160 6.7445
132.1750 13.5036
133.1420 9.3001
135.0980 17.1803
136.0550 61.7008
137.1220 28.6935
138.0650 14.1185
139.1090 58.1648
140.1430 13.6683
141.1030 53.7198
142.1280 51.6275
143.0930 119.4810
144.0960 14.6761
145.1440 30.1916
146.1300 41.6609
147.1470 360.2660
148.1620 93.4726
149.1590 15.3637
150.0000 33.3344
151.0730 13.9632
152.1220 56.7429
153.0020 19.6589
154.1910 46.9313
155.0470 72.1161
156.1150 26.3014
157.0670 209.5930
158.0890 805.5850
159.1180 86.6554
160.0740 47.6695
161.1780 17.3839
162.1820 13.5816
163.0430 21.1865
164.0980 82.4806
165.1300 31.3383
166.0520 52.4355
167.1140 42.0401
168.0780 18.1628
169.0590 80.2308
170.0440 43.9124
171.0750 132.9660
172.0910 139.2840
173.0930 201.4850
174.1150 71.9806
175.1210 1666.2000
176.1250 148.7760
177.1760 42.3307
178.1370 51.8341
179.1190 14.0321
180.2880 24.2772
181.1230 19.5058
182.0610 89.6816
183.1340 201.8180
184.2420 56.7315
185.1480 212.7320
186.1280 177.6200
187.0660 589.6890
188.1500 58.8002
189.1140 141.8670
190.1440 62.5060
191.0880 196.7240
192.2420 9.1645
193.1580 72.5699
194.1660 23.9987
195.1160 50.7759
196.2730 31.6021
197.2090 102.4240
198.0810 157.5490
199.1700 105.1200
200.1040 149.0750
201.0820 232.0120
202.1630 81.5035
203.0460 93.6270
204.0430 233.3250
205.0520 183.6780
206.1550 79.4389
207.1520 113.5230
208.1040 81.9791
209.1810 307.3990
210.0200 321.3310
211.0980 123.1220
212.1620 154.1870
213.2060 94.3220
214.1670 146.4130
215.0960 1322.1200
216.1340 126.7600
217.1740 86.6475
218.0830 84.5632
219.1170 183.7750
220.2190 63.8514
221.0820 449.3980
222.1070 254.5830
223.1250 64.4023
224.0510 127.7030
225.0790 277.1030
226.1330 173.9160
227.1920 198.4240
228.1440 614.2030
229.1280 539.8390
230.0890 265.1700
231.1470 188.9510
232.1580 161.2560
233.1960 221.8300
234.1770 98.0885
235.1350 321.5180
236.1660 86.2062
237.1210 387.7380
238.1320 98.5891
239.1500 196.5590
240.1140 128.7790
241.1840 109.9030
242.0240 463.2390
243.1860 95.7441
244.1630 371.7870
245.1650 230.9820
246.1170 353.3660
247.1180 341.4960
248.1800 93.5602
249.0980 610.9360
250.0970 238.3290
251.0170 189.8930
252.0260 131.6280
253.1790 122.8440
254.0880 106.9990
255.2420 59.4045
256.1560 138.1350
257.1830 77.3771
258.1960 198.8910
259.1090 139.7970
260.1660 206.5270
261.2280 253.1110
262.1240 334.2520
263.0730 156.1180
264.0130 105.6130
265.0920 167.2100
266.0980 134.5700
267.0980 384.6610
268.1820 161.4350
269.1070 388.4530
270.1830 206.2250
271.1680 128.4230
272.2080 201.8100
273.3040 94.0776
274.2220 317.1210
275.1900 542.2720
276.1640 759.3030
277.1780 231.3960
278.5070 857.5080
279.1720 318.3240
280.2280 106.7430
281.2370 106.2240
282.1420 115.4770
283.1490 397.5990
284.0940 271.6720
285.1460 179.5860
286.1030 335.3720
287.1790 324.3580
288.1490 219.7350
289.1890 138.1690
290.1750 181.2450
291.1920 156.3510
292.2000 107.0750
293.1760 265.6830
294.1080 162.9940
295.1590 39.5733
296.1190 111.1090
297.3360 123.6260
298.2400 152.8670
299.3390 171.7390
300.2150 143.8460
301.2010 397.9630
302.2760 214.3090
303.2100 391.1710
304.2110 370.5740
305.2450 262.9210
306.4530 121.9410
307.0830 115.1280
308.1080 213.2500
309.2770 106.4700
310.2570 197.1470
311.2250 122.8420
312.2960 172.8910
313.3550 238.6800
314.2110 783.1470
315.1670 297.0370
316.1870 295.3660
317.1290 198.4750
318.2810 161.5180
319.2330 320.9480
320.2160 221.3440
321.1570 468.6930
322.1640 451.5720
323.1670 93.1822
324.3380 115.7730
325.3070 204.9380
326.3010 102.6090
327.4380 649.6980
328.4680 307.8840
329.2900 204.0540
330.1430 155.4230
330.9790 260.7920
332.0700 223.2470
333.3890 264.0740
334.2150 341.2340
335.0640 488.6070
336.2520 4552.3600
337.2060 258.2840
338.2610 110.7610
339.4770 174.0130
340.3760 282.3420
341.4510 214.9720
342.5280 1247.2200
343.1960 2056.2300
344.1910 388.7290
345.0850 236.3140
346.1950 214.1710
347.4260 205.1950
348.2790 362.9630
349.3060 296.6890
350.1290 177.8120
351.1160 158.9730
352.2880 174.0940
353.3800 307.7690
354.2360 233.3000
355.1020 772.8150
356.0250 849.5850
357.2150 396.6750
358.3520 257.3260
359.1500 323.5900
360.2380 238.2810
361.2850 372.0610
362.2710 584.7040
363.2950 322.9920
364.2060 317.4470
365.2490 153.0960
366.2090 341.7270
367.2490 160.9810
368.2310 136.0620
369.3040 357.0610
370.4350 239.3000
371.2720 3487.6000
372.2940 851.0870
373.2560 305.2410
374.1880 312.2380
375.2940 433.7880
376.2960 799.5400
377.1430 152.5880
378.1570 360.7690
379.1640 232.1340
380.1450 75.6497
381.1010 212.6690
382.1790 169.8220
383.3910 451.1650
384.4490 599.7760
385.2860 675.2960
386.2220 1141.1100
387.2630 326.8820
388.2910 383.3010
389.2380 754.8390
390.2890 662.6310
391.3720 451.3630
392.5820 2154.0000
393.2910 950.3420
394.4420 238.1140
395.5620 317.9640
396.4130 525.6550
397.3310 419.8810
398.2830 397.0090
399.3670 358.5730
400.2980 594.3540
401.2260 210.5540
402.2820 277.0030
403.3500 570.6480
404.3370 812.6390
405.3010 1011.1800
406.2630 684.7630
407.3040 511.0640
408.3830 572.0890
409.3900 368.7450
410.4600 330.5800
411.4570 164.4820
412.4270 390.6420
413.3330 725.3000
414.2870 792.7540
415.2150 2390.4900
416.3630 1069.7300
417.5100 1046.7300
418.3600 1245.7500
419.3670 911.7120
420.3490 552.5400
421.2920 1432.0800
422.3630 814.8530
423.4160 767.7040
424.6950 221.2320
425.4320 423.2270
426.5560 854.8800
427.3970 1895.2500
428.2730 1181.2000
429.1880 329.8360
430.0970 396.2200
431.2420 7681.3200
432.2840 6592.5100
433.2160 6224.6400
434.3860 897.0580
435.3430 546.3010
436.3720 195.0160
437.4200 449.6610
438.4650 734.4900
439.9630 13500.2000
440.9080 12809.5000
441.7470 1115.6200
442.6950 805.6050
443.5100 459.8960
444.3110 53.0281
445.1970 63.3637
449.2150 236.9450
450.1770 154.5160
451.1460 115.6970
453.3210 34.7271
454.2700 39.3190
455.1160 35.8038
456.2430 57.3034
457.2930 72.7682
458.5810 38.4334
459.2890 27.4979
460.3290 164.9480
461.3170 75.9567
462.3280 105.9250
463.3480 57.3394
464.3840 38.1979
465.2770 36.0503
466.3820 60.3343
467.2080 43.1866
467.9790 82.2319
468.6710 4.2417
469.4380 54.8334
470.3040 70.0363
471.4370 112.4910
472.2440 147.4750
473.3800 80.7502
474.3440 33.1443
475.3150 46.1005
476.3450 26.7295
477.2850 23.5509
478.4170 120.3920
479.2730 191.8490
480.7530 72.4651
481.3900 49.5006
482.2670 141.9320
483.2600 28.6612
484.1880 29.9027
485.2920 66.5219
486.1820 49.9848
487.3560 175.7280
488.4380 163.9740
489.4010 42.1308
490.4370 27.9880
491.2330 16.8184
492.2530 110.3240
493.2280 110.0420
494.3270 60.4848
495.1760 45.4210
496.3100 27.3018
497.2870 179.5950
498.2750 102.4090
499.3380 847.9440
500.4600 226.8320
501.6670 137.9160
502.5160 47.0474
503.5800 43.6964
504.4210 52.7157
505.3390 62.3546
506.2600 50.3657
507.3640 25.1632
508.3440 110.6500
509.2110 53.0404
510.2740 412.8090
511.2770 137.7970
512.4390 65.1817
513.3050 90.1919
514.1260 61.4479
515.2740 99.1437
516.2960 46.7725
517.4490 105.6710
518.3310 45.7323
519.1850 60.5083
520.5760 31.8787
521.3410 137.5430
522.2640 62.5412
523.2870 94.5490
524.1930 123.7860
525.2990 99.1947
526.3120 51.2255
528.1920 389.8830
529.1680 111.0720
530.4030 36.2735
531.3490 100.9280
532.2520 162.4170
533.2680 290.7860
534.3580 96.3638
535.5390 68.3271
536.3210 82.4087
537.4420 72.3865
538.3700 42.3813
539.2790 210.3960
540.3390 134.8810
541.3170 89.6769
542.3160 90.2641
543.3010 145.5930
544.2330 60.1008
545.4630 25.5604
546.5060 79.9110
547.4870 76.7255
548.2670 286.3330
549.2950 290.8590
550.2590 119.2090
551.4090 105.3510
552.3690 38.6544
553.4450 77.3626
554.3650 85.8149
555.3370 87.4302
556.3640 4718.3100
557.3480 1062.5900
558.2580 89.0114
559.3690 83.1849
560.3840 179.2910
561.3680 120.1780
562.5700 59.2437
563.4300 30.3897
564.2570 67.4164
565.4370 99.8729
566.4720 96.5585
567.3520 233.9040
568.2970 107.5230
569.3980 72.2048
570.3390 35.6581
571.5700 80.8507
572.6920 272.2550
573.3430 148.9560
574.1840 141.7590
574.9250 145.4980
575.7800 63.0196
576.4000 12.7252
577.2280 17.4570
578.3170 27.6144
579.2870 71.4743
580.1640 86.6998
580.8150 43.0362
581.4450 6.1019
582.2990 118.5810
583.3670 140.6600
585.2640 3344.8400
586.2640 680.4750
587.1670 228.7090
588.6630 571.9160
589.3600 220.8660
590.4360 71.4661
591.5570 47.0076
592.4110 79.8482
593.4280 78.4072
594.5160 87.5808
595.4220 113.2790
596.3430 144.1280
597.2840 75.4420
598.2810 57.6381
599.4330 148.0520
600.5250 184.7060
601.3110 95.2687
602.2530 59.5193
603.2940 93.1206
604.3920 67.6417
605.3170 108.2160
606.4160 50.9000
607.4530 46.1203
608.3770 186.9320
609.4990 273.2850
610.6160 129.8700
611.3530 113.3060
612.4380 94.3345
613.3710 82.9001
614.3920 104.9800
615.4420 178.0920
616.3070 96.9676
617.3550 69.8519
618.2930 56.4556
619.4350 105.7680
620.3630 243.4130
621.3190 412.3860
622.3490 499.0870
623.3780 273.1540
624.4170 130.3210
625.3360 122.2770
626.3100 177.7830
627.3580 133.2680
628.4320 58.4583
629.3650 137.7330
630.4920 120.1630
631.6950 77.1419
632.4160 860.8830
633.4900 234.2030
634.4300 138.2400
635.2710 171.4320
636.3610 243.6830
637.3810 284.1320
638.3890 362.2450
639.3260 112.4660
640.4580 97.2745
641.3780 71.8808
642.4580 65.1131
643.4690 90.8871
644.4540 64.1868
645.4320 63.0408
646.4190 146.2600
647.4330 342.1380
648.3920 620.3760
649.4120 187.8540
650.3880 64.8376
651.4810 78.6601
652.3930 225.7110
653.4030 480.5810
654.4030 526.5750
655.3670 252.3910
656.4030 199.6640
657.3630 83.0941
658.4160 142.6920
659.4360 89.1237
660.3390 155.4540
661.3550 474.5130
662.3950 320.0330
663.4850 151.6220
664.3800 47.8874
665.5970 110.2570
666.5310 100.8220
667.4000 164.0300
668.3910 138.4310
669.3900 349.5650
670.4460 313.5030
671.4050 3394.7500
672.4020 1285.1600
673.4580 83.3145
674.4450 69.9139
675.4770 41.0589
676.3250 41.5856
677.4970 10.9111
678.3930 33.9608
679.2440 76.2451
679.9330 24.4133
680.5620 98.6357
681.4730 74.7791
682.4000 164.9120
683.4670 122.0900
684.3910 462.4730
685.3360 155.6100
686.3470 70.8354
687.2650 74.9726
688.3380 62.3022
689.3690 79.4594
690.3960 96.8475
691.4050 57.5871
692.4950 35.5543
693.3640 72.0212
694.4280 72.6507
695.3970 196.1600
696.3650 270.4690
697.4130 347.2710
698.4530 164.4640
699.4640 26.0346
700.4400 14.3097
701.4810 13.4658
702.5480 34.1001
703.4290 29.4738
704.4230 24.3231
705.6310 59.6580
706.4270 64.9643
707.3320 42.6812
708.3850 304.3320
709.4130 157.1650
710.3950 134.2410
711.6650 23.9259
712.3750 116.9930
713.4050 88.8127
714.4820 48.1239
715.5920 33.6758
716.4960 18.5515
717.3600 8.0335
718.3720 11.3614
719.5000 26.6060
720.3040 43.4678
722.4460 127.5700
723.4500 249.3460
724.3800 596.9800
725.4310 244.4300
726.4200 156.7160
727.3930 231.7120
728.3930 70.8325
729.3620 10.1616
730.2240 31.3670
731.4800 39.9338
732.4390 84.1599
733.4370 91.8418
734.5850 108.5160
735.4600 39.7121
736.4490 33.5792
738.2750 39.8284
739.3330 29.7409
740.3640 69.2570
741.4870 62.0886
742.4560 90.9419
743.4060 58.0956
744.3110 21.6346
745.4180 14.7848
746.0400 2.7427
746.6860 20.5437
747.4990 11.3622
748.4860 23.7064
749.3740 149.7830
750.3340 289.5770
751.4460 364.6690
752.4460 305.3790
753.3770 131.0210
754.3260 25.8912
756.6610 7.4832
757.4860 12.9786
759.5920 230.0200
760.3880 182.3160
761.4600 399.0500
762.4640 124.9440
764.3700 27.9458
766.4600 53.6706
767.4730 31.2844
768.3740 217.1050
769.3360 176.1180
770.5180 122.0370
771.5010 316.2170
772.5080 54.5167
777.4620 14.6859
778.8950 6.8254
780.4740 3.0397
781.2410 3.6156
782.7500 14.2735
783.4930 28.4407
784.4610 169.4240
785.4490 128.1230
786.5210 10.1527
788.6400 19.7422
789.5210 7.4085
792.3980 20.4655
793.5300 7.8986
794.5340 9.7237
795.4510 34.2197
797.5340 15.8775
798.3870 32.2970
799.6520 18.7541
800.5560 15.8875
802.4560 6.7343
804.5280 6.3961
808.6420 23.0487
809.4620 22.5621
810.3290 10.2404
811.5780 17.8194
813.5890 5.3949
819.4400 14.5349
820.4070 2.4718
826.3750 8.1119
828.4400 25.6040
829.7470 10.9531
837.5040 37.7700
838.3720 48.7120
840.4460 4.4817
852.5410 13.1542
855.6290 4.9457
856.4720 17.4323
857.9910 68.7707
859.2530 75.6940
860.1380 7.8139
861.1710 36.6772
861.9030 2.2631
862.6400 4.1920
868.6650 12.0868
874.3640 15.1427
875.4180 63.6863
876.4910 26.4969
877.6220 8.4988
886.6740 9.5350
889.4330 7.8540
898.2710 5.8402
END IONS

BEGIN IONS
TITLE=File223 Spectrum950 scans: 2892
PEPMASS=468.7719 25651.2129
CHARGE=2+

136.0700 36.2334
136.9620 12.1525
138.0820 4.8569
139.0350 9.0017
140.2090 14.6226
141.1320 10.4692
142.0630 7.6253
143.1320 79.3610
144.1910 17.7737
145.1500 31.8131
146.0050 4.8224
147.1430 197.7840
148.0930 57.1468
150.1670 41.1108
151.0510 30.2368
151.9970 7.6431
153.0990 16.5736
154.1500 50.4176
155.0390 119.8710
156.1150 62.3403
157.0460 376.1530
158.1350 72.5612
159.0900 42.2678
160.0950 8.6523
161.1460 11.1432
162.1110 21.4359
163.0690 4.7896
165.1770 22.2153
166.2370 36.0075
167.0780 35.1400
168.2370 20.0761
169.1890 84.5788
170.0580 23.9829
171.1440 132.8440
172.1210 52.8832
173.1390 100.2730
174.0960 47.7940
175.0820 860.1950
176.2060 25.8629
177.0000 19.3277
178.1230 56.7552
179.2080 5.9520
181.0190 59.8798
182.2260 49.5459
183.1840 248.2140
184.1650 37.3574
185.1800 96.3085
186.1470 73.5813
187.1390 64.4712
188.1100 21.5824
189.0750 49.7685
190.1120 44.4646
191.1990 35.0437
192.2570 39.6897
193.0800 28.4035
194.0110 24.0895
195.0610 89.0791
196.0780 80.3595
197.1210 73.5838
198.2220 48.2220
199.2220 63.8871
200.1440 147.0720
201.0820 175.1740
202.0030 37.5450
203.0640 32.8992
204.0970 153.1340
205.0490 33.4045
206.1380 10.6877
207.0780 24.0123
208.2690 37.1243
209.1210 70.1861
210.2530 93.8312
211.1100 624.2150
212.0620 145.2130
213.1520 55.3140
214.2040 65.2941
215.0840 180.6490
216.1340 89.6490
217.1940 69.5058
218.0770 108.8880
219.1370 80.4436
220.1820 4.8312
221.2220 18.9266
222.1980 66.6615
223.1700 88.2933
224.1880 155.2140
225.1380 107.2340
226.1880 190.3940
227.1710 169.2920
228.1890 111.1640
229.0870 157.0100
230.1460 75.4096
231.2040 59.6845
232.1450 63.3016
233.1700 289.3900
234.1020 153.3070
235.0870 114.4580
236.1210 9.6304
237.1460 77.2103
238.1240 48.7770
239.1140 79.9017
240.1980 143.9160
241.3570 119.8740
242.1700 207.9300
243.1500 173.4740
244.1160 230.2840
245.2700 60.5290
246.1500 908.7380
247.1680 121.1770
248.1220 85.0763
249.1560 125.0950
250.1440 54.5222
251.1860 156.9390
252.1210 70.1758
253.2160 45.1293
254.1850 153.1100
255.1440 145.1770
256.0870 1259.5500
257.1380 229.7660
258.0630 133.8570
258.9540 49.1525
260.1850 104.3430
261.1370 195.8720
262.1920 75.9962
263.2100 71.6167
264.1860 40.7858
265.1910 69.2914
266.2340 134.3710
267.0880 96.2402
267.9960 89.1049
269.1290 176.2140
270.3050 130.8390
271.2220 91.6332
272.2520 175.7340
273.2210 76.2098
274.2120 81.7981
275.2250 104.2570
276.1520 108.5540
277.1580 98.8401
278.1250 47.5124
279.1550 48.8342
280.3100 77.6570
281.0920 32.8937
282.2140 177.7170
283.1500 67.0648
284.1900 138.9760
285.0980 97.4295
286.2110 87.6469
287.0980 47.0592
288.0950 160.8480
289.3100 84.8436
290.2260 54.3465
291.3490 28.4281
292.2080 80.7954
293.2460 100.9510
294.2450 337.8790
295.2630 111.6130
296.8110 590.1170
297.9630 138.2850
299.1760 479.5000
300.2170 109.3940
301.1930 106.5860
302.0810 55.1800
303.1260 60.3455
304.1460 235.7960
305.3670 257.4050
306.1800 94.5554
307.2760 128.6700
308.1630 79.3616
309.3180 102.7510
310.1340 214.9060
311.1350 200.2680
312.2180 135.8530
313.2170 78.5990
314.1220 57.6338
315.1740 150.4950
316.2110 153.5470
317.2730 112.7570
318.2120 107.1070
319.2420 74.3264
320.2290 97.0241
321.0830 76.3799
322.2090 375.9070
323.4410 293.8050
324.2360 73.9808
325.3030 113.6010
326.3700 113.3730
327.2180 835.9950
328.1470 346.1300
329.4760 202.3770
330.1930 66.0079
331.1860 166.1980
332.4080 74.6875
333.2340 194.9550
334.2180 53.6635
335.2340 128.2750
336.3520 195.0610
337.2470 188.1790
338.3450 295.6660
339.2640 404.4140
340.1840 1297.5000
341.2680 2331.5200
342.3700 172.4430
343.0840 49.7419
344.2370 122.0160
345.2860 1015.1000
346.3280 206.1470
347.2120 103.7430
348.1160 162.3250
348.8290 228.0210
350.1510 117.3520
351.1550 183.7700
352.2220 178.3290
353.1970 346.6480
354.1480 425.6060
355.0470 619.0440
356.1290 265.3720
357.3280 176.0000
358.2950 520.4860
359.3430 332.0520
360.3790 107.9760
361.3510 145.0410
362.2580 161.3140
363.1450 189.0070
364.2280 132.9400
365.2170 226.4680
366.2190 184.6410
367.2060 264.0950
368.2580 191.7520
369.3120 200.2640
370.3420 196.2570
371.2360 135.1030
372.2490 270.6760
373.2840 286.9820
374.0700 555.8540
375.0110 450.2340
375.7450 442.8530
376.9620 122.1950
378.0590 250.8050
379.2510 186.4220
380.4510 253.8160
381.4620 471.0520
382.3590 585.5230
383.2590 364.2250
384.4420 99.8346
385.2870 156.0280
386.2660 179.9690
387.3330 171.6640
388.3690 147.0100
389.1840 202.3440
390.7970 8193.0000
391.6250 164.0670
392.4630 136.5120
393.3240 108.0540
394.2970 345.2610
395.3390 174.0280
396.2270 244.5480
397.1750 320.2360
398.3260 207.6800
399.2090 108.5630
400.3780 182.7980
401.6050 64.0648
402.3950 226.4550
403.3310 336.7120
404.3420 701.2770
405.2220 1872.1000
406.2470 248.5830
407.2690 165.2980
408.2380 290.2880
409.1910 202.1540
410.1990 452.8600
411.3870 605.9710
412.3290 669.2740
413.3540 181.2110
414.2890 239.8060
415.4750 172.3150
416.3820 205.3250
417.2860 164.1330
418.4070 465.6500
419.5070 319.5240
420.3910 176.5880
421.4070 164.2530
422.2930 357.4140
423.2430 653.6610
424.2550 951.7850
425.2020 568.0600
426.1660 336.0260
427.2830 732.9040
428.3760 279.2790
429.2920 248.8740
430.3220 206.6170
431.4190 160.1940
432.4300 581.6820
433.2580 627.7430
434.2430 777.3200
435.5520 410.6740
436.4100 1463.3900
437.3400 806.0220
438.3450 492.2870
439.3250 264.9870
440.3380 853.9980
441.2780 827.9800
442.4240 540.6910
443.2640 418.2200
444.5140 282.2460
445.9050 1147.4400
446.8440 812.9300
447.6520 341.9110
448.4120 290.0800
450.2630 5304.4400
451.2780 6747.1300
452.1970 988.5300
453.0740 487.2540
453.8590 638.5030
455.1120 526.5820
456.1830 345.9880
457.1020 264.9100
458.5820 2182.7900
459.4990 9693.1600
460.2870 4682.2200
461.3450 213.6010
462.2960 389.5280
463.1460 99.4918
463.8770 13.2001
465.2970 6.5081
467.0120 4.9903
468.1850 139.3850
469.1050 173.9520
470.1130 100.3890
471.0860 9.6079
472.2060 31.4788
474.2970 21.1963
475.1440 22.8744
476.2340 68.7093
477.5820 52.4303
478.4340 24.1780
479.4520 32.7988
480.2920 11.5924
482.2950 2980.0400
483.2580 458.8530
484.4230 29.3719
485.2130 23.8794
486.3170 29.5982
487.4960 36.0571
488.4490 47.5562
489.6770 97.6119
490.3730 91.5741
491.3110 59.3499
492.4010 44.0411
493.2540 46.1871
494.0580 25.5406
494.9870 25.5765
496.3080 43.7067
497.3520 36.9229
498.1860 27.2658
499.4930 76.6324
500.1640 21.7110
501.3680 55.6176
502.3570 80.7034
503.3890 33.9171
504.3440 48.8774
505.2750 66.6513
506.3550 94.1241
507.4810 36.7322
508.3260 92.6728
509.3760 28.8540
510.3610 60.6807
511.2060 37.3558
512.2320 29.9297
513.1670 59.5763
514.2610 42.2481
515.3860 30.5073
516.2790 115.2820
517.3120 91.5304
518.3270 61.7341
519.2580 81.7797
520.3530 79.6485
521.3610 92.0785
522.3430 35.1162
523.3340 118.7190
524.4140 24.0438
525.3860 31.9788
526.2860 7.5556
527.3270 18.2871
528.4480 95.0295
529.3720 42.1310
530.4370 72.3420
531.5060 37.0299
532.2870 48.5276
533.6310 75.2710
534.3340 86.9429
535.6640 100.5820
536.3650 40.2992
537.4160 116.0160
539.5350 71.5730
540.3720 15.7303
541.2060 12.6858
542.2390 49.3913
543.3280 16.4191
544.8830 98.4689
545.8980 37.1214
546.6060 14.7842
547.4140 152.9150
548.4040 93.0643
549.3440 59.0143
550.7720 46.6918
551.5280 84.2715
553.1830 126.1900
554.5970 62.2130
555.5330 60.2374
557.2300 104.4180
558.7300 167.9210
559.3840 148.9020
560.4150 121.8670
561.2960 73.5862
562.3730 37.3338
563.3060 183.0350
564.3320 190.0900
565.4180 106.4840
566.2400 22.4507
567.0150 27.3843
567.6160 42.2423
568.7570 45.7013
570.2380 238.2190
571.3620 67.5168
572.2330 82.8744
573.3050 28.9805
574.3920 99.0042
575.3340 176.2320
576.4730 102.9510
577.3120 385.4400
578.3320 264.1560
579.5010 188.0150
580.5010 114.5880
581.4410 110.7450
582.3900 83.9606
583.5010 160.2020
584.3020 49.4762
585.5760 91.8857
586.3600 89.1100
587.5090 65.2712
588.3780 246.3620
589.3920 232.9300
590.3930 126.9860
591.4870 191.5840
592.3240 975.3440
593.5000 579.7780
594.4630 289.0840
595.5180 79.2481
596.3860 65.8208
597.3690 34.4219
598.5900 47.7376
599.2950 31.3788
600.2480 71.8190
601.5340 118.5230
602.4020 132.9880
603.5150 88.7673
604.3050 95.3857
605.2840 68.7610
606.3390 75.4159
607.2450 87.6391
607.9970 21.0765
608.6050 16.1621
609.3950 127.5200
610.3450 3053.0000
611.3160 580.9260
612.0530 24.8384
613.4130 75.1472
614.4580 81.0392
615.5100 121.5930
616.3070 52.2824
617.3700 44.1981
618.3870 36.7606
619.3710 97.9100
620.3320 220.1410
621.3960 68.9303
622.3380 84.7162
623.3920 91.7300
624.4200 47.2729
625.3740 65.8909
626.3830 8.7086
627.4290 35.4948
628.2490 89.7556
629.3190 69.8352
630.3580 84.8339
631.2870 73.8885
632.4020 63.7492
633.3810 41.0786
634.3490 64.1772
635.4490 50.3066
636.3850 31.3160
637.5040 86.0390
638.5180 93.2380
640.7110 45.3638
641.4020 98.0348
642.3500 109.4630
643.2860 116.0600
644.2450 126.0070
645.2840 186.8240
646.4330 161.4370
647.4180 57.0687
648.4180 78.7315
649.5270 82.1252
650.4840 78.1568
651.6390 110.2410
652.3590 118.0150
653.4540 225.8620
654.5260 42.0653
655.5940 28.3886
656.3120 22.5393
657.6610 69.6054
658.4220 82.6248
659.4050 167.6740
660.4160 248.3790
661.2900 177.0530
662.4110 227.0850
663.3380 127.3470
664.3850 260.1980
665.4800 158.8960
666.4320 87.3003
667.2760 28.3288
668.4760 81.1527
669.4740 39.0408
670.4610 10.2344
671.2730 21.4307
672.3170 47.8815
673.3340 107.4530
674.4030 83.8116
675.4110 73.1179
676.3630 991.2170
677.4170 377.1710
678.4140 77.1294
679.3730 42.9371
680.4070 137.7020
681.3870 4465.5700
682.4150 935.1820
683.5290 57.8665
684.4800 65.6597
685.9140 65.3751
686.7330 4.8819
687.3570 113.7850
688.3860 124.4210
689.4090 101.0410
690.3240 127.8620
691.3570 1094.0500
692.4410 585.0270
693.3520 343.4750
694.3880 145.1100
695.3850 42.6305
696.3450 91.3844
697.6100 12.0217
698.2710 65.9379
699.4360 31.2511
700.2030 9.0046
701.4310 51.2250
702.5250 26.3830
703.4060 161.0290
704.4910 54.9357
705.3900 130.5400
706.5750 103.9870
707.3930 299.6580
708.4790 217.4250
709.4280 170.1000
710.4680 122.8690
711.4490 30.8651
712.5010 10.8874
713.4070 17.8810
715.3380 56.3628
716.4510 138.6880
717.4870 101.6360
718.4300 246.4800
719.3760 175.5130
720.4200 230.0110
721.4150 217.9660
722.3130 166.1950
723.6060 65.7453
724.5170 58.9803
725.4310 63.4672
726.2330 6.4768
727.3740 44.5823
728.2640 39.6329
729.1440 14.3782
730.4440 15.4969
731.5550 26.0431
732.2770 21.8662
733.4600 142.3220
734.3230 174.8240
735.2120 118.8610
736.4080 174.4480
737.3680 155.9050
738.4940 76.0936
739.3890 35.1253
740.5320 14.6533
741.4480 18.6524
742.4400 31.5855
743.3390 39.9102
744.4890 61.4819
745.4870 94.5439
746.6640 21.2898
747.4960 118.7380
748.3590 31.7642
749.5340 47.0989
750.4310 151.5670
751.4530 112.0490
752.5020 75.4281
753.3660 34.8969
754.5090 5.9489
755.4010 27.0625
756.4060 35.3033
759.7120 43.1044
760.6400 95.1100
761.5720 106.7950
762.4400 634.7820
763.4660 226.0950
764.4190 224.0450
765.4290 130.8430
766.3880 74.9975
767.3820 16.6081
768.5330 3.3572
769.4360 19.7109
770.5210 18.7938
771.5440 62.6847
772.4570 91.9241
773.4320 82.9342
774.5870 26.4242
777.5170 57.6329
778.3310 67.3493
779.4920 79.4218
780.4560 1492.7200
781.4010 512.0200
782.3780 24.4384
783.3230 19.8384
785.3600 24.6559
786.5520 7.7633
788.4340 313.7170
789.4580 228.8130
790.4230 301.6870
791.4400 125.4410
792.3510 10.7609
793.2080 8.5172
794.6110 17.2338
797.6490 54.2135
798.4730 22.7281
799.3920 28.8900
801.8850 29.1531
802.5470 11.2932
803.3790 34.6738
804.4450 23.1050
805.5710 69.3682
806.3860 638.9620
807.3820 464.3330
808.4510 162.1720
809.3240 183.9210
810.0350 4.1687
815.4180 10.9018
816.5300 15.0057
817.3790 3.9297
818.1450 7.0600
819.5410 38.0164
820.1830 2.5400
821.5450 8.1930
822.4290 36.6839
823.5300 92.4041
824.4940 20.9139
826.4880 7.4577
827.4340 7.9998
828.5160 22.3390
830.7400 5.2564
831.3780 16.0929
832.4970 8.1313
834.5070 13.4516
835.5010 33.0024
837.4520 35.2393
838.3640 5.6277
840.4990 43.3063
842.2960 8.4516
844.5790 22.0580
847.4180 15.4539
848.2110 12.6039
849.4920 8.5226
850.6370 5.7216
856.4130 12.2082
859.3920 7.8724
864.4610 10.7469
867.8060 6.0400
868.6010 15.7765
871.5070 16.0052
876.3520 7.9745
877.2360 26.1021
895.7030 8.5656
896.7290 9.0661
897.6480 44.2676
904.4050 6.3251
912.6010 26.2329
913.6930 10.6350
914.6150 5.5746
915.2740 3.9541
917.5960 6.1939
920.2590 5.6851
925.5040 9.0256
944.6600 6.5786
END IONS