BEGIN IONS
TITLE=File7571 Spectrum1214 scans: 3286
PEPMASS=653.36066 230386.65625
CHARGE=2+
RTINSECONDS=1305
SCANS=3286
185.248 32.2752
189.036 43.3745
190.120 111.917
194.137 10.0031
195.165 23.2474
197.206 90.0816
198.050 51.1885
199.221 37.0344
200.092 48.5854
200.731 16.3092
204.082 47.2375
205.134 19.8978
206.154 535.574
207.029 43.3128
208.270 11.7534
209.254 9.96213
211.024 15.5553
213.230 262.488
215.072 46.5157
218.257 12.1959
219.248 38.5835
220.175 19.5158
223.069 7094.7
224.081 577.825
225.192 42.8234
226.139 407.115
227.136 156.455
228.140 37.204
229.040 33.6758
233.186 131.058
234.125 885.539
235.086 144.52
236.502 22.097
242.175 158.182
243.191 119.34
244.136 38.3262
245.106 65.1047
247.275 69.6997
249.338 76.3768
251.102 18382.3
252.109 1518.14
253.162 17.5685
254.065 66.2986
258.132 9.56332
259.348 74.2355
260.135 1194.88
261.185 131.456
262.470 67.733
265.057 29.4415
268.104 17.0047
270.255 54.3383
271.197 31.2622
272.146 39.9678
275.264 22.164
276.536 46.0185
282.221 82.1924
284.191 20.2098
285.431 76.2951
287.256 601.153
288.400 152.06
289.171 39.9319
290.327 50.3535
292.233 43.9514
293.108 26.6841
294.099 41.4218
295.343 65.5056
297.250 7.57411
299.265 27.8424
304.251 808.594
305.206 148.63
312.340 134.974
314.175 597.018
315.252 199.744
317.171 10.6601
318.139 19.9199
321.279 11.551
322.157 23.5677
323.125 756.729
324.092 132.286
326.314 11.9458
328.061 198.342
330.121 32.0703
332.206 10471.8
333.196 1557.76
334.160 94.3644
335.209 18.4162
336.570 37.9236
337.215 90.6974
338.172 78.0092
340.147 1415.51
341.212 379.78
342.210 49.0211
344.120 29.8588
345.584 52.7594
346.187 104.853
346.831 32.8885
348.217 46.1097
348.923 22.2678
350.199 3871.98
351.267 463.143
352.127 56.8648
353.340 36.0177
354.377 128.474
355.369 234.332
356.495 110.27
357.267 259.946
358.203 12.048
359.278 12.1033
362.099 16.264
364.177 47.8543
365.283 63.1458
366.441 58.6423
367.349 10.1358
371.036 12.1717
372.008 37.8035
373.331 451.199
374.319 120.817
376.278 49.6638
377.075 45.4837
378.255 45.1375
380.122 106.932
381.523 15.0133
382.295 243.979
384.338 57.8389
385.774 38.1516
387.259 30.4675
389.133 21.4139
392.534 126.665
393.390 122.46
394.278 51.6998
395.043 34.7275
396.314 46.3658
399.230 16.0392
401.736 141.31
402.433 15.5093
403.500 10.7376
404.374 15.756
405.570 23.2569
406.481 55.8158
407.429 42.7372
408.456 95.623
410.354 971.552
411.708 85.7946
416.379 23.3215
417.380 14.0285
424.362 38.0495
425.285 165.004
429.282 31.5082
430.194 43.6525
432.225 15.2082
434.215 80.2363
435.476 189.445
436.316 113.522
437.287 97.1905
440.580 126.821
441.330 129.555
442.463 51.771
443.067 40.8055
444.844 335.833
447.239 865.034
448.299 91.7609
449.569 87.4653
450.210 15.6106
451.247 99.248
452.261 121.861
453.311 833.89
454.300 323.481
457.518 268.183
458.453 758.985
459.372 217.248
460.316 30.2904
461.370 51.2913
463.524 37.5605
465.241 7421.25
466.257 1094.47
467.381 2852.22
469.129 89.1063
470.310 317.758
471.393 46.9305
473.233 56.2876
474.456 71.1497
477.248 65.5668
478.393 109.952
479.336 75.3234
480.581 38.0753
481.345 125.202
482.343 65.0991
483.336 22.7903
484.322 49.9334
487.336 1608.22
488.578 223.487
489.452 9.00958
490.323 49.5731
491.217 117.641
492.278 119.207
493.391 102.129
494.530 118.556
495.316 857.486
496.327 221.847
497.289 18.4489
500.360 181.74
501.219 93.0186
502.096 61.6196
502.840 12.6886
503.442 13.8099
504.234 17.4954
505.112 54.6913
506.327 120.76
508.357 81.3988
509.158 75.0006
510.054 101.028
511.416 39.7046
513.479 27.1169
514.986 768.215
515.734 176.539
519.343 68.8504
520.223 22.2006
521.264 317.564
523.870 5157.81
524.823 224.233
528.484 90.0512
530.412 57.6965
531.630 287.224
532.425 90.6562
533.258 16.495
534.353 23.1436
535.308 59.0495
536.780 122.492
538.293 158.527
539.228 117.774
540.351 145.05
542.427 59.3848
543.302 59.3758
546.336 224.896
548.200 374.771
549.357 484.376
550.258 169.093
551.864 144.191
552.885 101.255
554.408 63.7947
556.601 50.0689
557.592 109.096
558.348 108.823
559.316 49.5833
560.156 83.6474
561.803 99.3845
562.543 106.348
564.345 550.236
565.465 230.056
566.328 1306.21
567.434 461.176
568.257 61.4683
569.488 54.4676
571.573 239.564
574.524 176.702
575.325 24.1973
576.306 1246.77
577.285 233.293
579.414 164.603
580.471 320.659
581.614 114.292
582.394 269.89
583.488 107.714
584.630 385.849
585.289 255.046
586.160 8.89949
587.240 177.145
588.228 229.663
589.053 73.8641
591.250 66.9166
593.198 236.097
594.310 10091.7
595.288 1721.87
595.914 204.748
596.662 39.9202
597.491 105.53
598.477 184.386
599.620 59.5335
601.325 172.752
602.009 96.8552
603.544 31.3941
604.499 92.229
608.810 46.521
612.761 21.9364
613.917 31.1398
615.434 178.094
616.454 356.741
617.396 23.5292
618.445 162.81
620.917 315.731
622.093 172.225
624.203 113.485
625.536 83.0039
626.793 160.6
628.026 34.7135
628.818 44.9753
644.370 12.4255
647.319 18.1229
653.729 22.2454
654.598 26.7713
656.251 18.6942
659.489 8.3507
660.412 92.1747
661.550 47.2459
662.580 49.1499
663.376 85.8089
664.111 58.9492
665.398 56.1922
666.370 99.3812
667.491 43.3493
670.382 59.3061
671.911 23.3467
673.448 109.189
676.528 25.4307
677.456 236.922
678.535 275.887
679.403 57.5785
680.326 172.915
681.130 59.6667
683.451 256.186
684.589 37.1234
686.242 18.8837
689.261 78.6948
691.322 323.519
692.386 205.755
693.447 52.1417
694.511 211.142
695.466 827.913
696.325 217.738
697.338 508.695
698.422 101.149
700.420 183.087
702.324 21.8393
703.649 34.4516
704.481 66.1107
706.667 23.7443
708.506 144.246
709.316 52.723
712.464 13237.8
713.456 3899.9
714.407 127.567
717.341 18.4778
719.251 129.223
720.989 41.0808
721.657 16.7221
722.729 34.7736
726.234 59.8821
728.585 39.7458
731.919 57.4793
733.393 9.87023
734.601 174.933
736.521 36.2175
740.388 37.5709
741.527 15.9628
743.334 106.21
745.464 35.3957
750.393 20.3217
751.428 122.896
752.619 78.3337
755.579 34.8386
758.493 33.7982
759.340 59.802
761.878 88.5151
762.543 102.832
763.801 9.87632
765.455 64.7958
767.332 25.7318
768.492 49.3726
769.567 32.325
770.485 16.7312
773.173 99.791
773.947 72.5882
774.649 12.5832
775.606 119.71
776.400 59.6822
778.570 123.847
779.563 185.018
780.297 39.5187
781.735 26.1821
782.485 19.6714
784.404 72.6371
785.681 125.337
786.670 61.9858
787.513 13.9117
790.828 150.18
791.544 56.1788
792.613 111.212
793.487 264.335
794.227 88.0753
796.393 577.669
797.532 194.908
801.467 395.57
802.586 256.034
804.531 23.6084
805.638 38.4585
806.546 116.709
807.445 82.6814
808.674 64.8575
810.457 395.516
811.539 111.498
815.508 36.4554
817.734 57.4867
818.590 47.0271
819.470 1878.8
820.421 564.759
823.481 2574.67
824.504 1131.64
825.519 174.299
827.457 52.0154
828.542 67.4049
830.795 17.522
831.857 47.4642
834.531 10.6275
836.265 75.9712
837.380 49.8846
839.404 19.907
841.505 8587.75
842.486 3361.17
843.192 144.562
844.054 71.0503
844.969 89.5173
847.200 89.5911
848.175 131.001
849.158 14.9459
856.838 77.6974
857.692 43.2619
864.508 98.2914
865.297 13.5477
866.691 19.8737
870.855 25.4699
874.646 30.1099
875.567 37.6669
880.551 10.3226
881.579 12.8737
882.581 58.7445
885.454 24.3446
887.335 48.808
888.526 53.2855
889.566 19.275
891.634 145.729
892.566 230.834
893.483 127.69
896.712 32.3023
897.557 21.199
898.609 70.315
899.656 48.0317
900.466 14.3984
901.613 26.1411
903.563 24.7485
904.505 27.3618
905.510 34.1748
906.418 56.5844
909.535 808.985
910.531 309.439
911.790 15.867
915.426 448.275
916.431 176.552
917.421 145.38
918.942 43.333
919.791 17.7736
922.045 33.3453
926.986 46.4877
933.503 3134.89
934.534 908.957
935.632 39.1485
938.028 26.8864
938.672 256.562
939.610 565.07
940.597 188.348
944.768 16.8088
945.674 7.64145
946.606 17.2382
947.721 33.0025
948.664 77.7405
956.570 15316.5
957.560 5020.2
958.399 127.944
959.107 12.7502
961.525 20.1914
965.512 18.4483
968.577 75.7957
976.814 13.9113
983.643 84.348
984.629 16.4408
989.701 21.3834
993.611 18.0709
996.688 41.4527
1000.610 39.8109
1001.529 66.8448
1002.715 50.7345
1004.655 10.29
1005.668 52.6443
1006.756 28.2076
1010.849 57.8191
1011.597 42.6904
1012.550 44.8128
1017.677 38.9627
1018.636 122.285
1019.592 62.3764
1021.336 19.7823
1022.646 36.7829
1023.504 33.4293
1028.616 727.133
1029.675 340.413
1030.515 30.9804
1032.800 17.2761
1037.660 692.277
1038.722 871.333
1039.790 320.765
1040.669 31.6956
1041.582 21.8807
1044.650 72.4832
1046.642 4177.56
1047.719 1522.54
1048.849 78.3435
1055.656 30421.4
1056.638 13543.2
1057.659 243.355
1058.617 57.5858
1059.595 17.8696
1060.798 27.2919
1065.753 60.3941
1066.866 27.732
1073.514 31.2488
1078.769 27.195
1083.826 16.7913
1088.119 21.5606
1092.530 10.5171
1096.612 21.9499
1114.907 15.5641
1125.031 18.5055
1125.702 15.2205
1131.928 97.5429
1132.743 79.176
1133.645 28.12
1134.321 49.3263
1141.715 269.338
1142.678 420.989
1143.794 179.568
1150.740 72.981
1151.823 88.2157
1152.809 118.069
1157.673 23.9556
1159.673 2567.6
1160.808 1705.6
1161.528 71.302
1168.730 4779.72
1169.794 2797.93
1170.693 49.77
1172.014 30.4371
1173.278 15.0996
1176.593 23.2482
1178.013 109.571
1178.707 345.585
1179.802 85.6409
1268.313 25.0818
END IONS

BEGIN IONS
TITLE=File7571 Spectrum612 scans: 2654
PEPMASS=625.31378 1842144.00000
CHARGE=2+
RTINSECONDS=1161
SCANS=2654
177.007 161.385
183.219 309.337
185.182 230.471
186.229 499.184
187.078 380.539
189.134 146.657
190.233 185.447
191.173 131.124
195.213 492.75
196.168 231.766
197.099 760.002
199.193 466.222
200.219 86.5731
201.061 1597.99
202.235 356.138
203.156 148.336
204.143 142.382
208.198 255.29
209.134 407.385
210.123 228.891
212.122 322.045
213.144 205.572
214.568 616.328
215.195 205.573
221.168 411.33
223.576 92.6232
224.263 96.7091
225.143 994.43
226.163 3252.97
227.189 1162.13
228.128 462.629
229.217 644.439
231.157 14144.4
232.210 1363
236.095 107.013
237.166 289.824
240.305 106.548
241.238 1397.45
242.194 1277.78
243.288 1172.59
244.170 2459.07
245.218 532.769
247.274 115.05
248.195 239.352
249.322 1050.54
252.236 392.434
253.240 98.7583
254.176 3527.76
255.237 126.789
257.225 1653.94
258.144 1854.64
259.178 4965.55
260.333 951.214
261.032 106.662
263.090 102.617
267.217 1265.08
268.139 338.438
270.224 491.744
272.200 7769.95
273.276 814.562
276.131 38452.6
277.280 5041.17
278.142 316.411
283.538 389.647
284.192 521.294
285.206 7198.69
286.181 488.011
287.114 1276.99
288.184 131.546
289.200 219.224
291.180 1168.16
292.300 156.926
294.210 14867.5
295.338 650.104
296.156 253.48
298.133 1288.55
300.179 720.727
301.400 101.538
303.282 827.129
304.287 589.293
305.506 270.835
310.193 644.581
312.092 1198.58
313.358 288.4
314.344 327.064
315.318 264.631
316.286 622.148
322.317 463.337
324.301 63.5949
327.271 1341.03
328.354 1018.78
329.479 160.235
331.337 588.204
337.210 188.943
338.991 1626.9
340.069 940.24
341.239 2221.07
342.360 318.741
343.333 200.478
344.278 604.382
345.310 490.875
346.243 223.901
347.350 272.956
349.360 1077.35
350.346 226.33
351.391 138.686
356.226 9259.44
357.231 6260.81
358.440 87.8634
362.016 428.191
365.945 89.0167
367.212 3404.77
368.241 1327.14
369.341 271.453
372.481 662.412
373.244 7778.08
374.240 2601.02
375.331 1292.49
376.596 504.177
378.356 683.602
379.377 156.347
384.242 1139.24
385.201 15589.7
386.379 2520.12
387.275 907.64
388.258 1186.3
389.355 754.486
391.221 33752.6
392.245 6279.21
395.243 144.356
396.323 1456.71
397.304 788.513
399.352 320.901
400.640 89.6735
405.191 477.889
407.354 406.452
408.283 617.828
413.158 4755.63
414.363 4625.04
415.319 4160.29
415.927 606.811
418.339 190.597
419.226 914.772
422.208 297.558
423.453 150.854
424.239 247.403
425.396 487.431
426.245 150.182
426.925 585.515
428.372 163.725
429.301 223.549
430.616 1369.8
431.308 15820.2
432.511 3213.33
435.197 754.237
437.384 90.8302
438.378 791.707
440.470 287.252
441.315 1175.48
442.349 2152.57
443.428 151.376
444.437 224.415
445.344 222.536
446.427 184.033
448.594 445.537
449.384 191.624
453.251 3722.88
454.263 630.463
455.348 100.319
456.252 860.607
457.503 196.302
459.335 1496.26
461.024 1209.75
462.422 314.209
463.284 95.0325
464.759 3519.91
465.469 1136.71
468.353 873.47
469.557 1388.24
470.341 1091.87
472.296 180.581
475.823 936.778
476.442 5300.49
477.413 2064.81
479.002 6005.24
479.692 110.744
480.472 184.954
481.517 262.231
483.414 165.608
486.424 3096.69
487.498 5142.46
488.546 1664.59
491.357 147.938
492.345 353.054
493.574 441.003
494.245 148.543
495.865 538.164
497.273 628.977
502.235 688.682
504.319 19261.1
505.392 5056.34
506.391 518.176
507.015 85.5801
508.404 485.894
509.563 1745.82
512.842 479.27
516.030 668.879
517.438 654.018
519.839 118.035
520.823 1266.01
521.427 166.102
524.451 1693.32
525.456 1495.87
526.394 1097.4
527.045 119.726
529.358 1683.08
530.221 197.34
534.005 1873.74
534.624 175.571
535.595 219.898
538.429 14198.4
539.317 182.026
540.333 82.1088
542.475 11104.8
543.393 11200.3
544.442 1057.99
545.494 173.204
547.871 1164.61
552.100 47947.4
552.881 6289.95
553.733 548.006
554.707 135.286
555.766 270.695
557.137 3527.62
560.375 29197.7
561.461 14757.7
562.434 835.202
564.496 1148.8
566.402 1890.28
567.130 571.893
570.460 434.837
571.331 730.427
572.422 1590.41
573.312 15249.8
574.021 4703.67
574.760 268.1
575.598 342.374
577.753 695.332
578.471 858.145
579.330 215.147
581.297 601.475
582.458 452.321
585.443 947.687
586.386 406.413
588.406 117.781
590.871 1701.44
592.574 202.702
594.092 1673.75
595.047 847.459
597.272 245.168
599.435 18161.3
600.286 6038.5
601.288 992.462
624.432 82.5475
626.461 313.65
627.402 256.617
638.341 149.629
641.566 109.556
642.490 1047.2
644.578 253.745
645.624 370.784
646.432 366.057
652.425 144.117
653.419 896.422
654.414 638.374
655.481 589.862
656.424 242.275
662.605 1954.37
663.412 483.834
664.444 348.813
667.284 71.7402
671.233 2239.63
672.381 3806.6
673.504 1281.61
675.506 178.393
681.432 2375.78
682.247 1997.12
683.404 617.606
685.337 264.399
688.706 758.961
689.436 12696.1
690.410 14867.8
691.486 4329.09
692.290 335.235
695.652 165.99
696.364 219.799
699.505 473.198
700.694 452.725
704.593 190.955
706.301 106.944
707.068 107.767
707.857 679.585
708.593 192.103
711.312 970.221
713.326 5251.5
714.444 1655.9
716.589 205.013
728.402 5940.32
729.491 3147.44
730.469 417.659
731.416 1252.3
732.430 113.212
743.814 278.042
746.432 92001.5
747.432 23859.5
748.516 482.947
752.859 333.572
759.394 235.426
767.145 200.546
768.648 234.735
770.354 196.715
771.516 208.177
773.142 116.158
774.526 89.6965
782.594 203.549
783.564 560.187
784.314 651.877
785.337 124.509
792.234 961.491
793.276 966.31
799.562 129.235
800.628 319.296
801.531 2768.53
802.569 595.647
803.619 509
808.344 275.317
809.574 1511.32
810.606 1567.58
812.517 466.751
819.491 8986.55
820.481 3299.55
825.453 412.773
826.463 133.931
827.636 606.774
828.512 5392.13
829.505 4289.93
830.475 460.178
837.395 1162.77
841.523 4694.88
842.439 2484.87
843.847 342.595
846.447 2102.33
847.513 619.556
848.335 530.987
852.417 492.401
856.764 226.584
857.501 256.534
859.525 57165.9
860.602 22687
861.327 570.784
862.102 79.8926
875.538 367.363
885.644 148.386
895.646 273.561
910.585 106.766
911.686 569.668
915.442 195.03
920.476 367.02
921.526 695.783
922.634 604.349
928.566 2038.17
929.662 617.797
938.525 4029.92
939.508 2970.18
940.537 476.1
955.522 465.889
956.558 30146.3
957.612 16099.4
958.611 1857.12
966.611 617.921
971.432 101.85
974.549 145843
975.616 64363.1
976.472 844.898
984.686 327.025
985.766 127.639
986.452 276.293
990.444 190.025
999.430 136.817
1032.526 121.897
1052.646 234.494
1067.665 474.687
1075.616 400.792
1076.688 262.22
1084.333 89.8288
1085.682 1843.02
1086.806 718.528
1095.085 234.59
1103.536 17999.5
1104.552 8170.19
1105.413 635.289
1113.709 1486.69
1120.639 114.51
1121.750 6086.45
1122.735 2253.41
1128.466 66.655
1131.665 831.083
1132.679 229.128
END IONS

BEGIN IONS
TITLE=File7571 Spectrum1832 scans: 3935
PEPMASS=582.31830 3605384.00000
CHARGE=2+
RTINSECONDS=1450
SCANS=3935
155.448 686.675
181.091 409.157
182.017 213.722
185.113 95658.3
186.238 5625.53
191.041 419.485
197.147 1091.09
198.053 874.48
199.103 969.671
200.168 1822.66
203.020 278.582
209.189 342.18
213.106 87735.1
214.131 7364.51
216.126 2992.4
217.014 222.783
218.171 11709.1
219.105 515.647
224.041 255.839
225.212 862.664
226.066 12034.5
226.980 4770.55
230.220 207.639
231.183 1339.75
237.323 1143.17
242.068 495.191
244.077 24016.2
245.136 977.695
252.120 531.462
254.275 667.764
261.164 563.313
263.215 410.07
269.249 574.844
271.989 222.438
281.162 553.107
282.292 474.128
284.354 751.205
293.123 1182.65
294.223 541.87
295.182 469.667
297.258 1643.53
298.137 721.942
299.270 1240.98
309.179 1603.42
310.196 1487.68
311.135 333.231
312.237 1350.34
315.193 254.852
321.216 491.129
322.190 419.521
324.232 450
325.466 995.137
326.374 2755.65
327.245 29287.5
328.281 977.145
329.349 910.621
330.179 388.22
333.222 300.693
334.328 183.005
336.200 1317.05
336.816 248.205
338.195 1893.99
339.222 8552.53
340.234 3967.25
343.161 4689.67
343.849 215.13
347.405 211.024
348.263 413.515
353.273 1628.57
354.177 966.184
355.491 889.196
356.579 3932.27
357.220 16528.8
358.205 2857.45
360.422 672.025
365.241 38594.7
366.229 2578.03
371.197 7081.94
372.366 164.294
373.297 423.215
375.201 650.794
377.277 215.519
378.187 1121.92
381.752 220.045
392.119 1413.09
393.235 2044.64
394.164 461.517
395.298 250.372
405.189 1123.1
408.257 236.842
409.312 2519.35
410.382 3051
411.348 6840.72
412.385 639.324
421.304 1542.49
422.352 781.413
424.328 347.141
427.346 1492.56
428.243 6677.67
429.322 601.533
437.394 5040.69
438.337 7216.66
439.219 14710
440.258 1048.75
441.233 1337.65
442.412 949.623
445.347 1147.5
449.355 2362.19
450.262 621.495
452.316 2519.83
453.311 3912.98
454.455 1199.44
455.560 2661.8
456.250 41491.5
457.426 5408.72
458.441 14715.3
459.402 6264.24
466.454 395.155
467.505 29873
468.336 3144.24
470.207 18364.7
471.159 1916.02
473.345 245.586
476.325 60889.3
477.196 294.303
479.318 422.892
480.944 183.494
483.181 1022.38
484.402 1854.53
485.411 162.582
494.288 61597.8
495.244 4837.13
498.756 415.512
501.312 291.976
506.565 2241.11
507.410 1912.03
508.348 431.641
510.300 477.075
512.255 425.887
515.340 486.056
516.716 2647.33
517.383 935.412
519.817 208.662
521.696 361.086
522.452 272.536
523.740 2284.7
524.354 8301.75
525.743 17594.4
526.504 1043.09
528.883 334.311
530.910 14876.8
531.703 862.135
534.221 8838.34
535.434 1340.2
536.427 861.064
538.101 2330.86
540.426 827.462
541.388 19550.2
542.444 4261.77
543.260 200.972
544.446 422.691
549.233 110.491
550.423 2422.82
551.405 7070.04
552.335 24564.7
553.413 4746.01
555.716 3444.08
556.328 2043.48
557.373 326.128
588.357 556.641
590.421 434.632
593.027 351.649
595.320 196200
596.348 29141.6
597.918 908.413
604.225 136.365
606.726 541.283
607.461 373.719
608.418 656.883
624.356 296.925
624.984 413.631
626.357 678.604
634.595 952.068
635.392 9164.5
636.366 337.034
641.472 257.842
642.402 1723.08
643.637 480.379
650.310 309.598
651.353 419.698
652.410 7372.58
653.454 7072.86
654.505 1622.93
662.348 129.219
666.048 239.696
668.234 1313.84
669.799 1219.87
670.524 10546.8
671.435 2639.63
673.198 225.006
682.334 657.795
685.471 285.226
686.484 640.718
689.417 357.082
690.473 7618.27
691.497 2503.42
697.482 397.68
700.473 566.15
704.299 211.967
708.433 154739
709.528 31958
711.178 389.589
716.231 407.61
717.737 506.403
718.494 752.365
720.001 144.773
722.032 815.738
728.490 415.477
734.996 975.138
745.865 292.754
746.482 830.028
747.522 338.686
753.558 953.77
760.720 273.077
761.977 439.833
763.427 1227.25
764.602 2376.26
765.530 1192.29
770.729 282.225
771.494 2721.74
772.784 263.186
777.794 157.321
780.325 637.196
781.423 7439.52
782.533 4380.17
783.573 984.016
788.356 3738.31
789.637 969.166
799.481 7180.53
800.457 1761.95
804.568 349.205
805.392 224.311
806.582 735.518
812.277 1278.54
819.488 5986.79
820.443 173.448
821.187 612.213
829.607 1385.57
833.557 271.081
834.516 240.253
837.510 75269.3
838.496 14990.3
839.164 585.013
847.497 2912.29
848.595 667.864
853.524 128.493
862.641 368.013
869.467 1041.23
872.606 149.003
874.542 223.486
877.487 352.003
883.205 960.115
884.681 381.892
887.548 982.809
891.344 173.828
895.942 360.335
898.904 838.627
899.556 702.337
900.635 1254.63
901.479 545.924
903.408 346.532
904.674 2238.1
911.630 1195.6
912.763 473.774
915.540 2388.81
916.657 686.801
917.430 1993.65
918.508 1322.71
919.214 671.671
928.591 2535.18
929.442 2271.43
933.478 23183.8
934.640 19732.2
935.403 2318.74
944.742 137.867
946.524 5820.35
947.506 3089.09
951.543 476478
952.539 142530
953.361 938.034
954.374 1364.33
961.743 625.188
962.652 2355.94
963.509 406.786
965.265 1042.96
972.666 891.084
981.570 441.653
982.611 1111.16
983.699 680.499
989.735 175.897
999.665 2138.34
1000.638 6303.76
1001.544 1445.63
1012.995 397.557
1016.678 1015.8
1017.626 14533.7
1018.667 7459.57
1025.494 346.377
1029.711 138.202
1032.676 3051.98
1033.699 3526.79
1034.584 591.193
1043.573 849.152
1046.599 273.409
1050.591 15296.4
1051.571 4202.15
1052.249 711.37
1057.918 374.559
1060.660 1606.08
1061.657 10306.2
1062.395 3741.19
1063.150 1275.98
END IONS

BEGIN IONS
TITLE=File7571 Spectrum1233 scans: 3306
PEPMASS=435.90961 764027.25000
CHARGE=3+
RTINSECONDS=1309
SCANS=3306
129.124 2156.1
130.138 3026.76
131.100 175.33
137.097 64.0001
139.157 61.6389
147.060 10431.3
148.215 350.913
153.179 294.808
166.135 163.166
169.247 84.6373
177.075 56.9998
180.868 190.359
185.214 766.176
193.224 58.4647
199.200 865.357
200.132 177.897
208.852 56.7439
210.243 217.41
211.011 471.921
212.279 104.373
213.175 97.5365
223.051 479.561
224.438 165.588
226.160 3987.28
227.081 1065.95
233.243 53.3459
234.207 87.4309
241.620 218.115
242.263 428.199
243.220 206.779
244.402 1276.02
245.160 2191.59
246.204 71.9261
248.196 192.927
251.198 2079.6
252.179 618.602
260.224 6841.09
261.297 952.148
265.670 349.354
270.344 633.621
272.216 112.036
274.972 214.053
279.908 456.805
283.780 297.653
287.682 210.338
288.813 4010.33
292.836 525.796
293.696 100.334
297.742 3052.23
299.136 187.826
299.822 114.849
312.991 177.692
314.290 491.203
316.328 172.035
319.550 98.1404
320.982 198.394
323.037 2140.63
323.996 174.683
325.281 231.124
329.827 144.459
332.250 1349.94
337.092 1029.63
340.128 1225.27
341.391 738.002
344.162 124.231
345.961 2112.39
346.975 838.132
348.346 3367.02
350.283 4818.17
351.188 376.947
352.206 134.472
354.957 2552.44
356.852 63099.7
357.784 1330.88
359.536 132.305
367.311 296.735
368.320 79.0875
371.244 125.766
372.251 308.08
373.381 1384.62
374.319 1214.54
378.430 80.8504
387.095 649.443
389.274 151.942
392.136 1015.02
392.787 1045.31
395.445 414.814
396.418 257.59
400.531 384.118
401.413 3021.68
403.018 616.339
403.879 302.07
407.218 372.108
408.307 316.742
408.925 190.874
410.287 4576.42
412.779 232.832
436.314 60.3987
440.604 183.547
443.886 86.2166
445.008 92.1931
447.161 573.287
447.921 250.948
449.548 991.056
450.306 217.409
452.299 697.327
458.446 1678.81
459.119 263.897
461.028 839.593
461.680 229.793
464.736 1625.69
465.358 11416.7
466.495 1897.94
467.450 4002.74
470.252 595.371
472.374 112.513
484.906 353.424
485.723 285.589
487.377 11275
488.460 3362.98
489.413 50.923
492.387 284.457
498.181 153.287
500.638 640.812
501.507 558.669
505.786 1758.01
506.455 904.587
509.125 340.978
510.041 442.28
515.015 14709.6
515.853 580.907
516.665 229.665
522.942 1286.2
523.993 28358.6
525.156 434.927
526.544 84.8524
529.196 99.6926
530.449 1022.29
533.480 178.111
540.076 777.427
549.228 922.545
550.353 92.6479
553.831 601.565
556.430 306.682
557.431 1550.33
558.326 213.109
559.293 211.269
562.261 2569.12
563.081 2141.57
564.433 714.556
565.401 257.94
566.527 1355.31
567.496 443.29
571.553 9584.6
572.460 1151.85
575.760 296.16
576.439 1412.17
577.457 292.454
580.387 16837.5
581.071 9283.86
582.090 122.381
584.423 228.392
586.211 52.9139
590.312 110.049
594.370 30423.3
595.463 7961.84
596.335 198.082
597.552 118.783
598.582 1094.93
599.514 368.058
600.433 136.207
612.463 337.835
615.427 5428.48
616.462 1067.94
617.548 184.111
624.642 157.753
626.562 513.162
627.364 68.1173
628.084 88.4324
630.502 62.9549
636.422 49.5821
642.497 130.404
657.680 83.6589
658.513 200.852
659.428 124.717
660.377 80.6226
672.442 328.836
673.539 171.742
676.935 73.6963
677.611 574.232
678.614 118.762
690.399 342.016
691.389 665.565
692.517 230.345
694.641 72.0405
695.457 671.083
696.584 392.849
709.349 176.912
712.530 14510.2
713.573 2159.45
717.335 125.371
725.705 326.159
743.603 1843.52
744.653 404.763
747.652 159.071
766.732 159.109
771.332 170.267
774.432 221.486
775.650 88.222
795.705 73.5878
796.508 64.4749
797.549 63.4966
801.552 60.1622
802.776 95.4086
803.387 54.6947
806.796 125.267
807.822 130.33
819.659 256.513
820.898 131.914
841.841 178.579
842.681 96.6753
872.964 97.2874
887.783 85.471
891.869 102.136
897.270 444.993
898.584 58.6488
900.501 88.4586
915.693 314.117
916.772 642.669
928.667 154.902
933.623 834.152
934.768 565.402
1010.743 174.778
1028.679 530.321
1029.656 1338.97
1043.592 127.018
1046.638 1023.48
1047.733 1357.26
1048.374 240.132
END IONS

BEGIN IONS
TITLE=File7571 Spectrum1252 scans: 3326
PEPMASS=653.36066 1795276.00000
CHARGE=2+
RTINSECONDS=1314
SCANS=3326
185.192 189.357
190.085 83.7182
194.185 115.331
199.017 82.9238
200.615 62.0035
206.134 1103.31
207.126 656.505
209.113 191.054
211.215 168.618
213.193 499.766
217.109 100.827
218.180 316.369
219.094 372.421
220.057 118.933
221.265 150.025
222.131 151.386
223.109 15047.2
224.088 986.449
225.184 543.522
226.150 533.594
227.169 204.196
233.080 1480.29
234.219 700.956
242.451 744.459
243.102 321.727
245.143 230.967
247.100 139.073
249.189 236.84
251.089 48057.4
252.082 4662.72
252.977 196.459
259.345 416.61
260.195 2812.24
261.125 110.308
267.074 121.958
269.276 132.927
272.146 205.581
278.126 78.5366
287.157 1543.32
291.831 162.111
296.217 274.556
301.366 94.1423
304.204 1201.3
305.029 692.809
308.372 88.1917
311.299 498.349
314.260 1053.38
316.524 68.7679
322.057 140.659
323.149 2367.75
324.223 816.235
328.303 428.072
329.142 85.8819
332.209 24412.4
333.238 4262.33
335.129 133.521
339.168 387.527
340.146 2436.98
341.324 942.543
343.179 222.284
344.259 670.315
347.324 184.057
350.193 9319.05
351.081 962.43
354.483 512.817
356.178 159.842
357.265 505.453
366.162 218.543
367.099 154.956
373.237 1719.97
374.385 232.077
380.396 288.042
382.230 951.461
384.187 91.5839
384.971 188.358
391.275 88.078
392.357 209.244
394.198 205.056
397.153 86.8548
401.009 1123.17
402.143 783.234
403.930 70.4425
407.413 139.43
408.314 464.042
409.257 407.861
410.211 1645.66
410.832 275.006
413.674 152.045
418.541 200.793
425.279 640.893
426.236 563.224
433.322 152.291
434.545 253.51
435.203 213.901
436.304 470.163
437.328 326.501
438.239 69.6005
443.288 148.325
444.670 1446.33
445.403 297.337
447.277 2691.45
449.760 371.91
451.333 993.833
452.246 584.548
453.246 3269.93
454.377 173.357
457.574 219.803
458.439 3298.06
459.244 1426.16
460.763 85.5492
465.258 16611.4
466.344 1741.33
467.430 6504.2
469.453 401.864
470.341 1269.41
471.288 341.217
473.208 278.212
477.236 693.612
479.399 185.582
481.200 297.969
483.732 292.503
487.368 2144.78
488.436 517.869
491.051 118.846
492.926 151.875
495.262 254.15
496.250 312.622
501.438 324.06
504.181 224.32
505.690 250.164
508.190 139.135
508.958 116.635
510.007 1298.47
512.436 130.248
515.079 3211.69
515.757 366.914
520.137 140.408
521.500 1249.47
522.752 654.461
523.940 12155.8
525.042 1134.26
529.813 131.058
531.406 299.104
532.362 350.186
533.356 170.766
537.268 229.071
538.261 1095.84
539.444 145.5
548.438 559.033
549.425 1566.27
550.422 659.655
551.458 103.636
554.294 91.5993
555.423 159.543
556.098 81.9032
557.448 690.743
558.406 238.958
559.422 389.16
561.397 62.4109
564.329 599.326
565.406 1228.54
566.349 5384.35
567.313 902.663
568.390 123.512
572.153 140.839
576.321 3263.5
577.323 306.069
580.343 325.465
582.324 320.024
584.119 659.386
585.078 949.075
587.442 365.129
588.354 1705.98
589.331 741.06
589.966 111.763
592.357 135.388
594.307 20524.8
595.282 3098.9
596.330 477.807
598.377 286.163
599.489 420.458
601.880 171.508
604.522 162.141
611.559 154.69
612.819 155.196
615.463 485.126
616.371 298.932
618.275 228.388
621.431 123.29
625.527 796.562
652.443 164.262
663.338 360.515
665.830 83.0048
666.508 192.98
672.399 195.501
677.504 405.501
678.443 173.811
680.359 124.011
681.295 127.115
683.557 137.524
690.686 466.662
691.388 435.76
692.291 211.407
694.529 1078.32
695.482 2019.95
696.391 670.468
697.536 593.656
702.595 150.311
703.553 401.238
708.138 204.104
709.621 367.316
712.449 26111.9
713.505 8050.48
714.195 157.875
737.446 151.436
742.325 276.239
743.517 582.585
745.358 59.4604
747.658 117.745
748.371 118.788
762.335 235.862
763.434 238.242
765.442 470.953
768.461 336.571
769.434 158.651
778.478 459.131
779.531 216.741
792.465 447.284
796.558 876.117
801.456 754.948
802.480 1195.02
806.465 233.301
807.490 148.825
810.590 261.819
811.411 145.387
815.488 91.4232
818.392 242.275
819.513 3844.52
820.596 1098.3
823.620 5710.91
824.601 1489.43
825.638 617.127
836.478 371.498
837.712 488.348
838.408 173.382
841.473 20462.4
842.549 7851.14
843.604 270.038
844.454 191.505
854.461 157.177
869.022 384.364
889.679 95.5618
892.538 920.019
893.762 323.77
898.358 175.485
899.557 358.188
906.873 317.531
909.560 2019.32
910.689 433.538
911.450 72.9277
914.929 689.508
915.570 1101.19
916.652 561.353
918.485 179.496
921.526 175.412
925.798 253.592
932.688 75.1863
933.514 7734.17
934.557 2171.49
935.453 200.209
939.580 738.196
940.763 225.27
951.676 109.385
956.560 33899.9
957.531 9456.38
958.397 913.268
980.725 130.581
984.246 335.955
1002.667 420.855
1009.328 253.384
1018.603 672.859
1019.898 284.638
1021.713 179.674
1023.653 338.225
1028.802 782.992
1029.655 1676.13
1037.753 1268.65
1038.636 1299.82
1039.673 1406.49
1046.664 8094.06
1047.671 4690.7
1048.623 160.959
1055.632 72513
1056.626 27154.9
1057.637 1156.33
1063.840 107.853
1065.731 233.205
1066.852 185.388
1076.507 140.396
1077.656 146.155
1079.848 247.054
1089.584 99.3874
1115.241 127.427
1125.664 441.278
1132.798 317.596
1135.129 295.45
1141.768 1362.27
1142.768 1292.18
1150.702 63.7322
1151.677 651.858
1155.409 98.7041
1159.717 7654.73
1160.821 3186.76
1162.241 108.153
1168.747 8097.37
1169.763 5981.72
1171.005 97.69
1176.789 408.977
1178.062 754.885
1178.715 540.909
1290.643 83.3966
END IONS

BEGIN IONS
TITLE=File7571 Spectrum1279 scans: 3354
PEPMASS=435.90973 15626.49316
CHARGE=3+
RTINSECONDS=1319
SCANS=3354
129.389 16.119
130.069 66.4092
136.140 14.2322
141.080 12.4798
147.099 168.515
148.131 33.1402
156.933 13.1675
158.027 11.7708
160.032 3.24457
161.174 12.9396
165.188 4.92952
169.234 4.48497
172.132 12.8514
173.247 6.43234
175.012 73.5464
176.120 31.179
182.950 3.48656
185.153 26.9747
186.165 5.55023
187.049 17.1522
193.086 45.5254
194.143 7.26612
197.438 12.0469
199.171 48.5492
200.193 13.4479
201.224 9.36755
207.048 9.87066
208.948 76.869
210.177 23.3793
211.006 84.9724
212.076 10.3867
213.002 60.1345
214.198 20.9842
215.231 54.3724
217.115 13.1696
218.152 3.19829
219.236 3.67493
221.060 63.3121
223.048 19.9566
224.229 13.1692
226.131 63.088
227.164 34.9866
232.410 7.78723
233.315 5.67862
234.254 38.801
235.494 6.36786
238.631 5.64609
240.260 10.3182
242.060 20.903
243.193 19.9819
245.149 31.4733
249.059 57.6204
250.312 10.6092
251.246 33.1648
252.072 5.23407
253.197 24.6101
254.923 9.62464
257.185 5.92864
258.333 10.5251
259.520 24.552
260.266 93.5154
261.240 21.8356
262.266 3.0794
263.048 4.73079
263.976 7.43144
265.077 8.53307
269.224 3.45141
270.094 5.40744
271.289 6.73157
272.980 4.09269
274.160 24.6421
275.139 21.9045
276.123 21.088
278.067 5.82052
279.163 4.68685
281.709 13.8813
282.505 7.23111
283.949 18.4686
286.377 4.03869
287.309 4.50227
288.494 36.8648
289.194 11.0227
290.246 5.78435
292.291 2.62919
294.324 9.84537
295.040 9.58693
296.087 9.0349
297.857 119.392
299.226 15.2521
300.204 6.22278
301.268 7.73255
302.331 3.20836
303.140 19.2533
304.258 9.27349
305.349 3.02501
306.026 13.5349
307.107 17.2674
308.169 5.13949
309.691 3.68155
311.481 7.45599
314.404 32.2863
315.272 4.07399
319.158 15.0532
320.307 35.1595
321.051 143.505
322.169 88.8795
323.010 256.448
323.992 126.206
324.944 105.17
326.025 29.5374
326.925 24.7359
328.234 16.0125
329.883 65.7919
330.835 8.92325
331.656 5.84755
332.405 13.0806
333.256 26.3493
334.292 20.125
336.003 64.999
337.046 36.1611
338.126 22.4262
339.387 7.80452
340.739 83.5753
341.635 61.9036
343.042 11.1216
343.659 7.55443
344.547 14.4643
345.860 25.2205
348.176 61.0702
348.950 9.52528
350.249 56.1
351.476 41.2592
354.850 60.9665
356.883 1183.82
357.682 79.3062
359.055 40.6298
360.567 13.0874
361.612 17.7233
363.405 53.4983
364.197 15.1872
365.121 8.74673
366.295 10.2479
367.413 6.17875
368.432 26.4824
370.335 11.4348
371.384 36.6299
372.510 11.0912
373.415 78.8163
374.387 18.1553
375.527 12.5324
376.590 16.9051
377.234 3.35579
380.384 2.31435
381.342 6.629
382.277 13.6435
383.571 25.4983
384.453 3.49635
385.527 21.5754
386.542 21.2134
387.384 10.8204
389.244 18.7706
390.077 35.159
391.143 82.4813
392.229 65.3726
393.456 36.7706
394.824 223.404
395.450 31.1682
396.475 20.0801
397.669 45.7404
399.495 13.9961
400.304 21.581
401.476 58.4011
402.525 67.006
403.833 68.2461
405.084 15.7611
406.627 33.5955
407.991 79.3282
409.013 9.46741
410.058 76.9061
410.697 10.3526
412.033 7.34021
413.436 5.28897
417.160 4.11758
433.484 13.1108
435.163 25.3273
436.416 5.49814
437.335 9.9878
438.430 6.48922
448.332 9.8432
449.012 31.3372
449.956 40.652
451.283 10.2538
452.903 17.2529
455.339 14.8678
458.562 63.8056
460.362 49.4145
461.839 8.75969
465.403 229.72
466.369 25.7736
467.467 68.794
468.371 15.222
470.066 16.1594
472.786 20.0865
473.511 11.3484
474.412 51.2439
475.413 6.00159
477.670 6.67871
480.962 14.5166
482.354 4.01099
483.491 29.9962
484.356 5.59117
485.961 43.9073
487.457 203.675
488.507 68.1223
489.399 10.1282
491.125 27.0289
492.976 20.1731
493.665 3.65307
495.329 14.4958
496.335 11.1898
498.428 6.03402
499.412 17.6999
500.423 13.9991
501.510 34.3903
502.541 21.7634
504.507 29.4959
506.267 101.286
507.032 33.2117
508.090 16.6631
509.239 20.1538
510.002 17.246
513.747 22.354
515.124 278.186
516.489 20.148
518.103 32.5273
520.438 9.59527
521.585 18.9803
522.515 26.8716
524.022 548.105
524.792 12.5331
526.674 3.36042
528.470 12.3988
530.429 5.5117
531.930 6.61583
533.279 22.0597
535.366 13.2682
538.502 41.0215
539.430 10.8776
540.218 3.94242
541.481 10.5984
542.353 7.43254
543.160 19.0533
544.239 90.0946
544.914 9.57642
545.612 3.06344
546.443 17.5997
548.348 6.82548
549.320 7.07818
552.431 27.9002
553.475 20.1004
557.218 27.6167
558.117 13.3262
559.470 24.183
562.333 16.9784
563.292 36.2114
564.414 13.6634
566.835 31.7646
567.539 9.89071
570.480 29.8633
571.482 182.274
572.446 41.7026
573.580 8.90642
575.694 21.5953
576.572 22.9721
578.524 7.27478
580.536 369.778
581.335 12.6521
585.443 11.6035
586.951 18.3846
593.484 4.71524
594.412 546.691
595.475 146.503
596.319 16.1277
597.294 24.0152
597.994 36.8412
598.919 23.6681
599.536 7.18371
601.463 24.303
603.621 12.2932
605.339 9.29941
609.513 18.5492
610.436 8.1113
611.526 6.16618
613.611 12.4251
615.572 88.2143
616.573 27.4153
619.473 2.89334
620.400 2.93968
621.409 11.0799
622.305 5.91779
623.476 56.5326
624.599 4.42759
627.606 6.13807
628.545 4.89502
629.500 12.1778
630.761 4.45636
634.564 5.66623
636.665 3.14011
642.452 19.9048
643.460 31.3815
644.655 29.1333
645.767 30.7257
646.476 19.4324
647.107 3.72879
650.397 16.4641
652.448 32.6296
653.478 6.54199
654.273 5.10647
655.415 3.49782
657.586 46.1445
658.559 83.6567
659.686 31.7689
660.414 19.584
661.613 5.95167
662.304 3.9523
663.502 4.71069
669.515 5.00855
672.263 6.16476
675.475 16.7469
677.522 18.8805
678.600 5.82375
679.426 3.33689
682.326 16.887
684.563 10.1405
685.629 18.8589
686.282 6.59774
687.474 6.95803
690.475 12.7807
694.465 26.3508
695.672 22.5469
698.066 4.19878
701.522 13.6493
702.444 6.24088
705.595 7.95033
706.561 9.9937
712.457 126.033
713.463 73.883
714.154 4.53273
718.423 10.4665
722.320 6.45576
725.573 6.59573
726.470 3.56933
728.802 7.75005
734.426 4.53023
738.594 19.944
740.875 12.4884
743.668 46.4378
744.570 29.9452
749.525 6.46766
759.698 22.1281
771.933 5.93918
772.676 18.2752
781.555 6.32766
784.438 13.2009
785.364 10.0667
808.596 13.9308
831.609 10.9091
846.667 12.6957
847.593 5.36923
850.571 20.3493
856.683 12.4028
863.694 8.12298
881.513 7.96019
898.639 2.66231
904.011 3.039
915.904 6.16292
933.565 19.7952
935.971 3.38898
939.629 8.56501
1028.737 19.9849
1029.626 15.0006
1030.446 3.20654
1046.689 21.8394
1047.738 4.70468
1248.818 5.43109
END IONS

BEGIN IONS
TITLE=File7571 Spectrum1294 scans: 3370
PEPMASS=653.36072 159710.82813
CHARGE=2+
RTINSECONDS=1323
SCANS=3370
189.117 15.6795
200.081 9.91499
201.136 6.81528
206.211 153.122
207.106 15.593
209.079 37.9267
210.082 8.34583
211.107 21.744
212.004 13.33
213.087 44.8881
215.134 9.92948
216.869 6.07466
218.933 35.5161
222.028 44.6073
223.056 1923.26
224.135 77.2241
225.004 55.1407
226.095 73.1877
226.988 33.0722
230.105 17.3373
231.102 12.1486
233.195 83.5423
234.104 267.089
235.174 65.8402
238.252 15.1939
239.057 16.3892
241.126 8.62348
242.159 12.3187
243.184 4.81498
245.144 22.3927
246.072 11.1063
247.078 57.9226
251.072 4972.96
252.157 462.137
252.902 52.2133
255.184 18.6647
258.084 28.941
260.121 225.396
261.260 15.0804
265.111 20.0844
267.140 56.6632
269.191 24.487
270.029 13.0394
271.600 34.263
272.379 18.0118
275.264 13.0779
275.980 31.9624
279.120 8.54472
284.170 20.1203
285.143 40.6297
286.049 72.0554
287.175 129.854
288.338 81.9496
288.965 15.8929
290.248 29.7653
294.208 42.5464
295.113 55.6792
296.840 11.2823
299.007 22.8667
301.275 17.3292
303.240 74.33
304.327 79.0991
306.149 9.18258
307.103 16.5064
309.348 10.3884
312.208 52.902
314.282 185.69
316.112 9.76092
318.142 4.26415
319.254 54.4984
320.161 38.0283
322.113 10.2476
323.168 134.589
328.153 98.4465
332.161 3110.78
333.276 175.378
334.268 103.381
337.034 21.7404
338.263 44.5651
339.072 8.79117
340.091 163.019
340.692 15.9357
341.299 178.074
342.352 35.9726
343.144 24.4162
343.848 27.0261
345.442 61.673
346.189 8.07137
347.318 22.9182
348.202 24.4462
350.170 871.827
351.212 178.525
352.732 30.5271
355.014 35.3322
355.957 7.76314
357.315 18.0181
358.181 14.2489
362.113 35.5529
364.222 42.8838
365.200 39.7263
366.191 18.7761
367.558 36.5388
368.402 7.13967
370.222 68.4191
370.838 8.16195
372.089 30.5439
373.223 253.791
374.263 129.551
375.246 61.7105
376.184 15.3956
379.288 25.2002
380.281 47.2717
381.393 16.6679
382.132 34.101
383.224 30.0085
384.193 33.1603
385.924 20.4953
386.817 18.6983
387.686 25.4115
392.262 21.9909
395.626 59.0796
396.265 31.3977
401.380 21.4026
402.088 10.9953
405.247 36.3999
406.300 7.3873
407.415 13.7914
408.193 14.6154
409.365 16.8292
410.448 176.77
411.249 29.6637
412.462 8.54247
415.087 40.9256
416.466 37.1859
417.178 49.2823
420.457 8.11701
421.630 35.2108
423.558 38.5596
424.449 16.4207
425.300 50.0808
426.401 69.7922
429.165 15.4054
430.354 56.6659
431.766 32.09
433.251 27.317
434.259 8.06751
435.254 36.7735
436.530 35.2722
437.263 58.895
440.773 85.8281
443.868 87.5298
444.831 81.7175
446.347 15.1858
447.279 109.638
448.432 35.3089
449.652 25.39
451.285 19.0781
452.170 26.4839
453.237 70.4311
454.329 79.4282
456.191 48.8229
456.965 66.2537
458.824 369.871
459.935 49.2793
460.948 23.2662
461.689 8.73992
462.899 18.1167
465.185 1577.49
466.186 264.677
467.249 485.028
468.066 167.346
470.323 109.314
471.274 38.3353
472.190 23.7601
473.288 78.3764
474.417 83.2078
475.262 41.5161
478.364 25.4158
479.293 38.1153
480.421 45.6944
481.267 37.1977
482.622 101.894
483.495 48.3886
485.606 10.4001
486.344 8.99093
487.377 483.753
488.301 298.186
490.485 27.909
491.215 30.5574
492.711 155.803
493.687 20.4483
495.315 164.979
496.194 12.4882
498.767 19.5904
499.917 22.3094
501.209 8.88807
502.178 69.3598
503.019 96.2029
506.590 43.4891
509.388 130.555
510.282 27.9665
514.352 96.0711
515.499 146.887
516.218 57.2165
517.400 81.4832
518.316 5.71267
519.363 48.0675
521.284 47.2987
522.329 113.134
523.893 1416.97
525.108 73.9892
525.763 34.9734
527.217 48.8616
528.033 55.203
528.769 36.5321
530.385 27.15
531.974 256.941
532.708 14.5767
533.851 57.6716
535.198 19.0896
536.332 26.5302
537.678 61.9552
538.931 164.1
540.123 42.2107
540.983 103.146
541.946 31.5935
542.934 38.4649
544.319 27.7147
545.324 143.956
546.536 49.1268
548.446 63.1735
549.503 180.035
550.271 164.001
551.839 16.2672
552.704 61.3874
553.526 10.2753
554.712 35.3952
555.359 24.0575
556.478 72.0198
557.241 55.2441
558.160 288.596
558.875 34.8801
559.511 60.9562
562.193 13.5422
562.893 77.0103
564.416 183.735
565.412 176.27
566.388 677.492
567.478 161.781
568.248 62.5305
569.295 21.7468
570.607 68.4092
571.656 118.666
572.353 17.7956
573.305 35.3147
575.519 103.182
576.437 225.178
577.181 105.161
578.353 62.5056
579.440 28.339
580.966 114.073
582.481 180.596
583.337 38.897
584.264 20.8257
585.134 124.383
586.331 84.9936
587.498 147.318
588.545 52.595
589.402 91.8128
590.344 28.343
591.440 108.314
592.341 91.3261
594.295 2359.13
595.284 609.256
596.276 10.1267
597.163 67.1965
598.254 100.068
601.483 85.6457
603.095 114.839
604.178 39.8424
605.234 75.1402
607.566 91.8656
608.919 159.55
609.752 37.7952
610.377 54.0465
611.853 41.9732
612.547 77.3749
613.595 87.0639
614.289 22.7701
615.453 41.4552
616.225 28.8527
617.185 66.991
618.697 29.7225
619.394 24.3807
620.254 101.257
621.185 165.014
622.121 225.717
622.956 41.846
623.770 66.3091
624.453 73.2063
625.344 33.5679
626.087 79.5162
627.220 48.9476
628.408 208.375
629.019 50.4939
650.444 36.1858
652.388 41.0863
653.735 32.2993
654.539 32.1235
655.654 35.0021
656.518 20.8423
657.297 8.86345
659.881 51.6012
660.947 54.7717
662.383 23.7503
663.314 16.1303
666.551 20.1421
669.380 5.77553
671.236 24.8086
673.253 60.6918
675.258 22.76
677.247 109.711
678.348 44.966
679.386 23.1263
680.287 39.0844
681.514 24.7022
682.789 50.4383
684.368 47.9758
685.592 9.48484
686.755 8.87075
687.410 11.9362
689.424 60.2043
690.325 52.7538
691.207 117.912
692.179 44.4366
693.292 7.70239
694.569 59.3863
695.567 154.576
696.385 41.463
697.321 55.5872
698.236 47.1837
700.610 6.59534
701.919 156.885
703.482 13.9407
704.558 39.8376
705.456 11.9424
707.383 7.07541
708.374 28.3314
712.438 2331.47
713.420 1569.98
714.454 96.7042
715.452 10.7229
717.693 23.8865
718.484 10.0803
719.363 17.1432
720.453 23.7459
722.153 72.8757
724.696 23.4687
725.482 54.7583
727.416 81.0977
729.315 41.6924
732.403 25.497
734.068 172.17
734.898 118.583
736.271 74.7311
741.868 26.2929
742.643 13.7154
743.503 63.3035
744.521 64.0928
745.274 32.55
746.076 80.4998
747.202 76.1315
753.247 30.9495
755.297 44.802
757.109 35.7505
759.410 14.4805
761.449 30.538
762.441 65.8115
767.512 9.41292
769.624 137.945
773.280 166.157
776.429 45.4465
777.382 28.4812
778.526 46.8137
779.466 58.7582
780.550 11.9289
781.524 11.1204
784.387 39.8781
785.446 7.45576
786.853 62.3482
787.790 121.055
788.854 149.869
789.796 28.3087
792.626 123.597
793.683 79.6669
794.400 58.2513
795.794 37.2261
796.450 96.1301
797.463 47.8812
798.866 59.612
800.480 68.1523
801.564 50.3031
802.318 164.416
803.366 49.1035
804.572 16.1358
805.431 19.704
806.508 45.5206
807.481 17.5578
808.585 113.26
809.368 127.74
810.605 59.7345
811.421 53.4186
814.464 21.7869
815.552 52.4082
817.440 90.5712
818.596 111.21
819.570 586.78
820.490 234.589
823.510 411.271
824.522 426.973
825.569 74.6456
826.612 8.86299
828.510 49.8524
829.431 40.8226
830.698 36.3783
832.771 102.615
833.515 29.0632
834.974 8.93504
836.022 30.0342
837.443 23.9068
840.551 7.00927
841.522 2032.24
842.478 1402.71
843.117 22.3142
843.786 34.382
844.915 19.4485
846.601 52.4246
847.506 93.3025
850.360 104.637
851.437 13.6842
853.508 45.0629
854.289 47.8599
856.959 38.893
857.745 12.1923
859.614 48.9995
860.310 5.71692
861.608 9.0391
864.362 47.7492
865.469 43.1621
866.712 30.6792
867.639 26.8729
870.925 93.4009
871.669 67.1253
872.627 57.7423
873.576 7.24173
874.597 10.7906
876.013 101.893
879.565 8.45593
880.561 65.2107
881.672 30.612
882.677 40.1699
885.540 22.8977
886.954 43.6148
888.652 52.5723
889.717 70.7149
891.620 37.7941
892.592 15.9139
893.753 69.616
894.602 30.2533
897.555 29.077
898.553 29.035
899.724 58.097
900.487 34.9154
902.527 23.1486
903.489 17.1724
907.041 131.838
907.743 12.6704
908.433 19.6133
909.693 103.56
910.627 105.289
912.518 14.3273
915.670 168.067
916.577 115.436
917.582 26.8804
918.542 13.1328
919.503 50.971
920.769 9.32878
922.878 108.877
926.797 6.94355
930.556 21.1572
931.621 34.8653
933.492 527.896
934.557 416.956
935.538 16.0233
936.324 10.2038
937.032 21.8909
938.668 67.6506
939.751 96.2495
940.617 42.1336
941.249 9.23135
942.580 20.1168
944.400 26.7763
947.010 19.5206
947.680 15.2215
948.400 7.15022
949.492 13.6017
952.574 26.6623
956.528 2533.08
957.513 2272.35
958.461 79.6045
959.708 16.5949
960.505 45.4773
962.357 11.5504
963.741 110.276
966.416 14.8664
968.605 25.0256
970.612 20.7048
972.572 39.3503
974.950 46.4584
975.822 9.55394
978.787 16.6269
981.683 17.0023
984.797 15.2016
987.683 8.74531
994.442 38.9497
998.644 22.9426
1000.209 29.4914
1004.759 9.52551
1010.696 7.86011
1011.447 33.2668
1012.709 24.6793
1013.643 48.5081
1018.320 38.5272
1019.518 115.469
1021.819 14.082
1022.582 47.0073
1023.554 31.5612
1024.714 11.0678
1027.599 23.6639
1028.684 142.006
1029.688 103.003
1030.767 61.6559
1031.513 27.352
1037.637 130.177
1038.755 328.264
1039.881 158.942
1041.611 15.7048
1044.972 37.8284
1046.661 664.423
1047.553 512.774
1048.486 34.7477
1049.269 9.67309
1053.806 20.5527
1055.626 6117.76
1056.619 5081.5
1057.684 193.437
1060.508 38.1162
1061.837 11.6899
1062.630 44.0806
1065.742 143.143
1071.583 36.6264
1074.535 15.706
1077.544 23.7597
1078.452 15.1441
1079.748 11.0529
1086.609 12.1854
1089.694 36.8729
1090.961 15.46
1102.797 15.6923
1112.625 18.0273
1113.866 35.0123
1114.645 6.65784
1115.609 76.0454
1128.657 22.0196
1130.471 10.9505
1131.806 12.058
1132.853 27.6589
1136.774 10.3181
1141.512 141.957
1142.651 229.189
1149.714 14.0303
1150.742 24.9335
1151.724 65.6147
1152.975 39.4441
1159.721 700.972
1160.615 520.786
1161.674 88.7733
1168.759 1056.22
1169.728 932.549
1170.675 99.1314
1171.688 25.2039
1177.537 38.5666
1178.821 50.9506
1179.680 41.6394
1181.699 45.2144
1208.466 10.2506
1218.963 7.75248
1233.788 14.6905
1283.849 43.6718
1284.956 42.7351
1307.561 28.6451
END IONS

BEGIN IONS
TITLE=File7571 Spectrum1444 scans: 3527
PEPMASS=653.36145 25718.01953
CHARGE=2+
RTINSECONDS=1357
SCANS=3527
180.864 4.1898
184.046 9.15777
185.302 7.98958
190.631 1.93801
195.127 13.3074
199.175 27.9379
200.074 13.4014
201.091 14.8402
206.128 19.4692
207.230 7.89904
211.158 6.58296
212.218 7.96348
213.221 5.01776
214.150 4.30478
215.070 16.5961
216.145 21.7054
219.228 20.6166
222.308 13.43
223.081 298.298
224.281 31.395
225.042 3.35622
226.141 10.9227
227.159 9.2739
228.196 9.98443
229.142 10.5503
230.010 3.36071
232.271 9.69097
233.152 25.8259
234.048 23.9439
235.102 7.97997
236.156 7.40612
240.194 9.74582
242.270 83.8989
243.049 17.7278
243.941 10.9414
245.102 18.7662
246.164 16.9046
247.095 37.9323
248.133 3.68204
249.092 3.67654
251.026 932.165
252.241 77.234
253.168 3.42107
255.932 6.92352
256.708 2.85737
258.148 12.6463
258.872 7.59755
260.182 87.1976
261.428 27.3004
264.187 2.28074
265.072 8.49332
266.249 24.6274
267.175 21.8073
268.073 11.3178
269.078 5.60835
270.153 7.43258
272.060 16.6758
275.221 11.8921
277.109 12.8622
278.909 7.64094
280.283 9.48059
285.159 31.9821
286.262 6.77902
287.275 47.9832
288.135 3.05458
289.054 15.0905
289.981 5.18406
292.499 11.6548
295.124 23.2243
297.048 9.49107
298.261 10.5933
299.168 29.0769
300.109 5.57364
301.095 11.6168
303.267 3.25765
304.323 23.978
305.155 33.3322
306.193 5.33804
307.178 3.3145
309.182 4.68379
310.261 24.1189
311.175 10.101
314.181 75.2635
315.118 25.516
317.056 2.37094
320.169 9.27112
321.303 17.4123
322.079 11.2626
323.171 38.9715
324.141 30.9184
325.259 22.5684
327.120 9.37911
328.191 11.4524
329.269 11.2761
330.029 5.93342
331.190 14.1826
332.183 527.637
333.145 71.6551
333.906 11.8113
335.246 5.13417
337.358 21.9283
339.259 37.7309
340.189 48.9095
341.204 15.5422
342.242 10.3161
343.198 22.1486
344.330 10.0503
345.221 6.05066
346.162 17.862
347.140 2.23434
348.179 20.5576
349.396 13.7033
350.257 224.597
351.253 29.2784
352.208 16.1256
353.258 30.1239
355.188 59.5676
356.132 2.47068
357.379 51.0367
358.247 9.73522
360.320 10.5317
361.156 5.90684
362.251 36.7844
365.146 23.3923
366.334 15.8349
367.242 2.56595
368.476 10.2296
370.252 11.2817
372.162 12.7804
373.295 115.985
374.434 18.7277
376.104 9.66834
377.263 10.2969
378.115 6.47094
379.019 28.6939
380.579 7.21427
382.167 24.4083
383.259 13.8119
384.263 14.2427
385.263 27.8473
386.384 11.9273
387.332 11.0576
388.274 12.6943
389.481 22.6737
390.180 14.0028
391.095 14.3174
392.122 3.65685
394.084 3.60747
395.336 10.7765
397.267 8.54283
400.221 16.6587
401.613 15.3974
402.273 4.80878
403.311 29.5477
404.241 6.26572
406.169 18.1942
407.165 17.3641
408.158 5.50495
409.236 16.2856
410.173 53.2943
411.034 58.2353
411.813 24.6478
412.747 5.02921
413.662 2.35123
416.247 5.80276
418.348 4.31024
419.161 19.3272
420.107 22.4779
423.049 23.5535
424.232 18.2589
425.252 13.9073
426.282 15.5758
427.446 14.9119
428.407 19.2117
430.387 3.79131
431.241 4.13876
432.275 4.80777
433.225 8.36819
434.365 20.2493
436.133 46.216
437.345 34.0401
438.191 12.2145
439.583 6.46047
440.355 14.9673
441.374 65.8337
442.387 24.3261
443.246 8.27062
444.375 19.8566
445.206 21.9574
446.530 10.6258
447.282 41.9746
448.235 14.7967
449.232 18.3918
450.296 4.42028
451.292 6.27354
452.229 27.0248
453.200 72.7583
454.888 19.3295
456.222 59.0308
457.402 65.0252
458.872 91.9736
461.258 39.4078
462.302 11.5278
465.190 337.776
466.218 60.691
467.171 97.8769
467.873 71.3386
469.618 10.7531
470.283 27.2761
471.442 21.0648
472.435 4.20343
473.152 3.17758
474.264 50.1189
475.627 38.2147
476.277 7.06845
478.205 21.1319
478.938 27.9957
480.080 5.50731
481.162 10.3842
481.995 4.42722
482.749 6.77514
483.571 11.9277
484.214 15.9708
485.276 29.355
486.213 4.32788
487.336 42.6789
488.398 47.1403
489.113 6.65765
490.344 29.9287
491.316 18.3925
492.389 6.9571
493.234 8.46545
495.197 70.7343
496.086 5.54653
496.864 30.417
499.439 24.118
500.635 53.3813
501.332 2.68568
502.274 14.4654
503.259 32.2403
505.545 28.1297
506.551 54.4038
507.250 24.5309
508.533 14.7129
509.260 5.1021
510.324 12.3733
512.546 11.2917
513.463 10.9669
515.024 61.5456
516.178 35.5628
517.010 13.1987
517.889 24.7592
518.503 25.5268
519.602 51.0095
520.370 16.4004
522.041 34.9182
523.099 41.2825
524.027 261.47
525.117 9.97373
526.165 8.87668
527.616 20.0747
528.290 10.0221
530.091 38.2772
531.128 13.7242
532.247 6.81723
534.253 12.0287
536.241 18.7289
537.266 75.0501
538.183 39.2134
539.156 23.7798
540.123 86.5411
541.058 4.09512
542.130 81.003
543.182 7.64194
544.390 32.1093
545.420 29.3919
546.553 34.7312
547.387 14.8713
548.707 54.3571
549.419 101.362
550.384 11.5436
551.553 57.7952
552.388 58.3766
553.244 81.7615
555.220 28.1466
556.519 40.2716
557.171 76.1587
558.099 23.0134
559.634 25.7039
560.539 18.7414
561.344 10.476
562.403 18.7726
563.337 17.9161
564.413 41.6574
565.294 89.5582
566.582 172.394
567.530 65.006
568.285 28.781
569.557 53.0573
570.629 47.5177
571.344 64.272
573.503 44.7272
574.550 28.0077
575.318 69.4255
576.341 98.028
577.675 26.7001
578.284 25.5997
579.646 151.694
580.390 201.037
581.521 58.9212
582.570 30.3676
583.491 49.0383
584.251 12.5851
585.085 49.9176
586.983 22.5981
587.768 26.1628
588.652 84.7593
589.876 123.613
591.091 85.6181
592.026 47.5892
593.219 14.0164
594.259 528.509
595.259 160.153
596.423 146.687
598.699 19.8333
599.993 65.1916
601.373 12.1328
602.434 22.0714
603.734 117.677
604.784 45.8751
606.209 21.6182
608.102 35.4148
609.229 74.0287
609.936 35.5665
610.842 43.3517
612.227 78.0416
613.532 67.559
614.623 106.519
615.468 133.465
616.341 45.8078
617.403 90.1481
618.365 57.6298
619.275 80.6803
620.370 39.5965
621.185 48.6697
621.951 82.3356
623.276 95.853
624.532 69.6286
625.618 90.3775
626.766 48.5414
627.496 33.9062
628.507 8.53813
629.776 54.552
632.457 5.82285
638.111 7.9869
652.181 13.0858
654.466 22.889
655.346 4.48854
656.469 37.8225
658.412 3.49825
660.921 36.6537
662.020 8.38555
663.519 6.44302
665.287 6.98016
666.390 18.596
667.756 6.65309
668.373 19.7645
669.849 21.5201
673.453 9.19691
674.419 7.96988
675.364 22.935
677.213 40.2709
678.383 109.244
679.341 28.9893
680.524 75.0773
681.428 22.0572
682.604 17.415
683.446 26.0555
684.526 39.9033
685.489 10.2356
686.860 28.3142
688.413 28.6339
689.602 19.3246
690.698 15.0602
692.205 23.166
693.262 28.0107
695.210 95.0806
696.042 62.8714
697.715 48.1277
698.459 40.9532
699.426 41.1022
700.554 19.904
703.487 34.9748
704.436 10.9531
706.420 14.3711
707.376 12.2125
708.378 21.1923
709.593 13.7527
710.223 28.4051
711.336 23.0575
712.462 541.051
713.425 249.419
714.417 7.5748
715.472 10.367
716.093 10.4615
716.711 3.29216
718.550 55.6705
719.497 37.5703
720.411 14.3847
721.471 8.80026
722.490 32.226
723.536 8.67686
724.433 21.2167
726.178 4.66571
727.467 19.8729
728.538 26.0766
729.775 34.7588
731.547 11.2658
732.914 33.4206
734.388 79.0784
735.256 25.5494
736.584 25.8459
737.441 35.3922
739.458 25.8269
740.432 47.943
742.214 21.9308
743.264 21.6429
744.342 10.2039
745.707 169.862
746.358 37.6834
747.275 48.2887
747.901 3.98942
748.514 18.8169
749.423 4.06904
752.161 60.7417
753.328 7.48366
754.739 13.9382
755.408 10.2524
757.355 22.2184
758.467 56.567
759.502 56.381
761.615 32.8583
762.314 23.1132
763.570 53.0577
765.521 22.4023
766.902 38.0884
768.733 3.36529
769.651 2.53362
771.319 21.4124
772.457 24.7644
773.321 39.3864
774.552 32.7707
775.989 63.5773
777.026 9.57477
777.634 4.05706
778.560 29.6605
780.076 39.7906
781.494 3.19348
783.453 17.0728
784.454 31.4593
785.529 6.10184
786.725 3.90729
787.902 24.2303
788.975 43.7002
791.376 8.73093
792.456 9.4207
793.496 23.8185
794.588 178.237
795.767 57.9376
796.718 21.0467
797.797 47.3999
798.658 37.8098
799.487 30.4063
800.693 14.9936
801.710 28.3401
802.804 73.8871
803.800 35.4042
804.439 4.48363
806.174 45.5474
808.203 38.2673
809.064 63.9644
809.970 9.1272
811.484 3.97765
812.620 11.0551
814.500 45.3919
815.676 6.3791
817.303 14.5837
818.487 80.2118
819.477 108.883
820.781 63.4824
821.528 17.3062
823.504 168.359
824.576 95.1366
826.086 15.4731
828.287 25.9831
830.444 17.1858
831.648 19.8926
832.364 5.99465
833.618 3.87564
834.673 27.9143
835.691 11.6754
836.723 73.8079
837.700 23.6814
838.425 20.058
839.273 17.3062
841.499 371.709
842.586 163.316
843.499 18.5136
845.380 48.7074
846.602 18.7401
847.428 18.6903
848.469 8.27427
849.541 33.4361
850.922 32.9479
852.572 33.2341
855.228 27.6489
856.206 31.1941
857.766 91.8256
858.769 168.787
859.648 32.7458
860.565 14.9174
861.268 6.68863
861.978 11.9765
862.709 9.91603
864.137 53.2808
865.395 98.3761
866.174 5.28652
866.998 124.063
868.161 19.5267
869.165 18.0154
872.299 54.3569
872.953 39.3702
873.667 16.0801
874.512 38.808
875.757 3.84375
876.680 2.86689
877.613 10.5954
878.592 20.7524
879.917 10.6725
881.391 4.47934
884.523 10.7702
885.425 10.6783
886.441 25.1641
887.645 29.8131
889.501 3.72743
890.471 12.9132
891.417 50.4403
892.660 5.02324
893.708 8.83317
895.741 59.6958
896.358 27.0822
897.335 14.6443
899.407 3.98893
900.624 10.7743
901.891 54.3822
904.604 7.44815
905.638 40.5522
907.020 43.6846
909.326 63.9363
910.690 10.0854
912.610 15.4512
913.872 37.1473
915.506 34.0995
916.469 24.6604
917.691 26.9344
918.391 2.83624
920.624 5.76706
921.753 9.3628
922.659 32.7173
923.495 11.1267
929.813 16.7665
930.694 6.16497
931.707 12.0871
932.551 9.80167
933.499 161.471
934.550 95.8645
935.433 30.7507
936.603 48.5647
937.646 36.7608
938.524 9.76879
939.704 37.81
940.670 36.3211
945.731 6.29773
946.503 8.05923
947.466 8.98738
948.340 3.56162
950.509 10.526
951.931 2.3615
952.760 4.63519
953.604 23.806
954.342 3.90281
956.538 601.709
957.543 391.459
958.155 19.7919
959.680 16.1945
960.437 16.3697
961.485 26.0035
962.487 17.5578
963.177 15.2463
964.942 11.7628
965.600 9.54153
966.620 4.86203
967.451 5.12978
968.357 10.8977
969.896 23.8315
970.596 17.0699
971.575 9.40506
972.531 12.1846
975.754 10.1573
978.456 8.52221
982.750 13.2896
983.705 3.38266
984.683 6.16039
985.643 10.6854
987.440 27.1532
988.556 21.4964
990.595 13.0194
993.133 16.4264
996.330 36.7693
1001.027 18.9786
1002.426 6.71351
1006.678 4.70575
1007.527 21.8886
1008.721 29.911
1009.702 8.67281
1011.555 15.567
1014.648 3.85091
1017.628 17.8121
1018.600 11.6943
1019.526 5.91894
1022.604 8.65401
1027.774 7.42164
1028.750 68.2628
1029.711 22.7753
1030.763 11.0198
1034.172 18.9482
1037.813 15.2292
1038.703 15.6999
1039.598 19.2429
1040.569 8.04206
1042.481 6.16188
1043.902 2.39078
1045.020 21.3782
1046.628 179.63
1047.607 147.299
1048.802 10.3132
1049.630 3.66952
1052.724 2.9407
1055.629 1522.78
1056.646 889.539
1057.577 22.8731
1059.508 3.35852
1061.604 7.93641
1062.600 4.89245
1063.497 18.1529
1065.603 4.99099
1072.592 9.25896
1074.671 13.4048
1076.712 3.67494
1077.665 17.079
1079.619 28.2229
1082.731 3.76909
1083.682 22.5358
1084.810 7.1157
1088.745 8.6724
1089.931 5.43319
1100.455 4.45378
1104.690 2.69228
1105.427 11.1778
1106.470 5.77868
1108.563 4.17891
1111.688 5.78554
1112.577 10.6128
1115.598 7.95075
1117.631 2.77989
1118.524 8.02164
1127.019 14.3686
1131.912 33.8243
1132.670 14.581
1141.515 4.92969
1142.773 12.7587
1143.839 4.18251
1150.942 10.8883
1151.884 10.6804
1152.888 18.6623
1156.654 4.16178
1157.574 2.93065
1159.587 180.872
1160.712 141.883
1161.828 13.8844
1168.845 281.407
1169.813 190.083
1170.729 3.85947
1178.671 3.79499
1190.927 4.42339
1193.985 4.19593
1195.786 10.9342
1211.693 14.7523
1228.771 7.5423
1245.625 6.16985
1251.694 7.28357
1267.804 4.98954
END IONS


BEGIN IONS
TITLE=File7571 Spectrum8743 scans: 12700
PEPMASS=388.34247 638.54120
CHARGE=2+
RTINSECONDS=3846
SCANS=12700
118.889 4.1759
159.035 4.00713
164.847 5.71148
172.844 9.89788
183.080 6.02132
190.235 6.35099
192.929 6.58389
196.986 3.29417
203.090 12.5569
215.076 6.29885
215.935 3.59272
238.896 3.53102
241.068 13.7074
242.237 5.14012
247.076 7.42146
255.918 6.22948
259.947 3.65755
260.824 6.28617
268.725 10.7005
273.264 11.2845
276.543 17.1301
277.204 13.0969
278.892 6.38783
281.008 7.266
289.100 14.1343
289.873 66.1982
290.821 17.0342
292.031 10.2146
294.979 5.35311
297.241 7.03396
299.827 2.91651
301.006 16.783
302.928 24.2209
303.742 4.50699
304.894 20.3218
307.990 203.172
308.922 7.72473
315.068 4.53588
316.191 6.21627
317.000 15.9498
324.530 3.24973
326.012 4.23838
329.093 12.5983
333.752 7.46608
335.121 7.93747
339.902 4.22129
341.647 5.65654
343.192 27.5292
344.955 12.0291
346.075 2.88609
346.941 14.0175
348.095 2.62915
350.024 13.6625
350.846 6.57061
351.834 16.9595
356.904 10.8922
360.814 77.6305
361.979 64.8705
388.695 43.9255
389.491 11.0676
END IONS

BEGIN IONS
TITLE=File7571 Spectrum8744 scans: 12702
PEPMASS=387.85715 809.15509
CHARGE=2+
RTINSECONDS=3846
SCANS=12702
140.806 6.11963
147.110 2.58467
156.953 3.62159
164.944 11.2898
172.846 6.16077
180.866 3.58308
182.525 5.8486
188.083 3.94539
214.111 3.2924
221.219 5.60479
230.697 5.57966
232.934 6.57706
251.800 7.67513
256.140 18.6571
257.007 12.7478
260.690 3.1418
263.985 8.40868
265.184 5.93273
267.042 5.34254
268.186 11.663
274.139 3.52541
276.791 8.27429
279.001 7.68517
284.993 8.15984
287.295 7.409
289.931 17.4642
290.961 14.965
291.930 6.228
294.204 30.0255
295.096 7.24877
299.167 4.33279
302.923 1.91146
304.449 3.27559
307.932 163.735
308.967 22.5531
311.265 2.75903
312.146 6.40307
313.831 5.50084
316.006 8.70168
316.910 13.6383
318.322 6.72798
324.876 6.19477
325.864 3.3013
329.332 3.40315
334.910 4.27879
341.024 4.38357
342.075 5.66029
342.791 4.77427
343.749 11.883
345.010 30.3204
349.976 5.36933
351.047 8.30725
351.829 46.9841
353.591 5.73278
354.745 9.19587
360.867 67.2173
362.065 21.0855
370.145 3.04474
387.638 12.8331
388.369 19.1224
389.230 5.72567
518.195 11.6365
END IONS

BEGIN IONS
TITLE=File7571 Spectrum8745 scans: 12712
PEPMASS=399.34668 1680.01636
CHARGE=2+
RTINSECONDS=3851
SCANS=12712
111.112 7.1723
119.115 8.23012
126.969 10.7702
128.998 79.2252
131.026 3.32252
139.254 7.27362
149.172 3.85519
164.884 6.91941
199.015 7.00202
205.079 10.1658
225.192 2.78613
243.023 3.39352
244.301 2.49796
245.103 5.2561
247.990 3.87667
249.884 8.83946
254.596 31.7016
255.236 185.427
255.966 9.66712
256.744 5.17234
259.006 3.92601
262.885 4.87882
268.630 7.1515
270.342 13.2404
271.869 13.473
273.197 17.5768
278.600 12.6629
280.764 3.93999
282.908 2.2626
284.823 17.1472
286.036 35.7062
290.911 3.99106
297.053 6.12994
299.200 21.5823
300.798 403.116
301.762 26.2712
303.963 6.05253
304.879 36.4666
307.925 2.64912
308.975 13.8637
309.893 17.7962
311.002 9.58598
314.990 2.76359
316.836 16.7454
318.976 12.3313
319.849 18.9787
321.117 37.1689
322.883 25.2788
326.876 29.9997
327.896 18.3971
336.011 11.1804
336.987 8.38837
342.169 4.85511
343.131 38.6741
344.863 34.5497
352.285 2.89286
353.917 7.6325
354.894 24.8936
355.836 13.0142
358.125 17.4217
362.786 41.4983
369.928 7.30418
371.164 5.42402
371.941 19.1606
372.888 35.9379
382.015 3.5223
399.103 27.072
402.366 6.6036
END IONS

BEGIN IONS
TITLE=File7571 Spectrum8746 scans: 12724
PEPMASS=832.24042 692.75684
CHARGE=3+
RTINSECONDS=3857
SCANS=12724
249.506 4.64243
267.102 29.8116
281.157 3.26949
341.071 3.75152
355.157 30.5104
580.842 3.30087
585.381 5.24246
608.615 8.54631
623.278 23.1042
630.052 5.53865
643.890 8.79767
678.028 9.23944
696.192 3.76381
697.080 8.69244
717.852 4.71912
734.288 5.34232
738.900 8.62795
740.165 8.28761
741.984 2.55415
751.983 9.56292
752.699 2.50487
760.895 10.7423
765.976 11.3213
768.186 9.41729
786.847 5.8903
795.840 9.97001
799.155 21.4771
1138.037 12.8666
1149.698 10.3096
1514.018 4.57547
1516.780 7.60573
1523.980 2.93433
1533.329 8.151
1543.587 7.29461
1546.882 7.8771
1557.581 4.18647
1572.876 10.4389
1620.679 2.23525
1623.556 2.78975
1652.750 2.95203
1675.505 4.75389
1677.491 11.1466
1713.594 4.7755
1719.843 4.67997
1720.607 2.48019
1735.838 2.89546
1742.267 7.97639
1745.127 9.20785
1756.921 3.71597
1765.620 3.34145
1784.419 8.89387
1790.353 6.03836
1794.048 17.8515
1802.342 10.1733
1802.947 8.06639
1806.968 8.94071
1809.011 10.3706
1812.925 7.51191
1815.279 4.08441
1816.054 11.0983
1817.630 2.51658
1821.935 6.0292
1823.258 3.61759
1825.815 4.0373
1827.710 19.7156
1829.938 35.1524
1831.054 12.2382
1832.740 3.59265
1834.825 7.72573
1835.516 5.63535
1837.374 7.04068
1838.148 12.5804
1840.325 7.1044
1841.259 4.33518
1842.700 8.14563
1844.485 17.6094
1846.553 22.8619
1847.245 30.7255
1849.562 6.88952
1850.241 5.0961
1851.450 23.3488
1853.635 4.44975
1855.277 8.23015
1857.003 12.7503
1858.443 3.40458
1859.581 6.36058
1862.373 26.8192
1863.506 4.88761
1864.258 5.81194
1865.488 2.31546
1866.999 11.4922
1870.020 8.52187
1873.443 5.04993
1874.523 14.0779
1875.525 6.56487
1876.494 16.3517
1877.586 5.79852
1879.665 4.16061
1880.847 11.7936
1882.204 21.7303
1883.376 2.25206
1885.755 22.424
1886.435 3.19956
1889.268 14.6084
1890.490 15.4874
1891.284 14.2439
1892.867 6.49013
1893.735 8.60473
1894.574 6.64389
1897.094 9.71632
1899.064 17.4034
1901.302 22.1332
1902.990 8.12094
1904.236 21.3566
1904.854 12.1033
1905.833 4.82819
1906.550 7.42355
1907.380 24.1866
1908.279 11.5073
1909.781 11.1503
1911.215 7.06862
1911.951 9.64498
1913.008 6.47774
1914.543 9.44726
1915.848 37.17
1917.508 2.93857
1918.698 16.4696
1921.020 13.733
1921.701 3.54763
1922.672 17.5921
1924.243 6.18751
1924.953 2.42672
1926.017 4.5701
1926.932 15.1248
1928.014 3.64947
1929.244 7.21279
1930.593 9.71158
1931.219 3.05966
1932.382 21.8502
1933.250 12.9557
1934.501 7.1065
1935.830 21.9319
1936.936 12.7395
1937.749 4.94461
1938.879 2.51919
1940.068 7.00968
1941.224 19.3431
1942.062 12.5762
1942.840 24.6782
1943.968 22.692
1944.942 11.1904
1945.556 7.67166
1946.344 11.6186
1947.560 15.5768
1948.413 17.9063
1949.266 13.7957
1951.698 19.1107
1952.650 13.9188
1954.204 21.2465
1955.793 6.19802
1956.951 6.09254
1958.218 20.686
1959.403 19.5485
1960.058 13.7424
1961.022 2.88772
1961.703 7.51644
1962.408 18.602
1963.902 8.16304
1965.088 28.5955
1965.926 16.7077
1966.760 29.5618
1967.917 7.21572
1968.970 22.6039
1970.021 19.2827
1971.688 33.3286
1973.638 18.1579
1974.340 17.1398
1975.185 11.5256
1975.991 8.99103
1977.263 10.2914
1978.032 6.09153
1978.902 15.6731
1980.425 20.3948
1981.377 30.4961
1982.510 23.9004
1983.689 10.3601
1984.607 22.3714
1985.506 9.25575
1986.407 35.5946
1987.499 28.1129
1988.623 13.5794
1989.611 23.4817
1990.534 30.7705
1991.594 42.9084
1992.944 34.6982
1994.835 15.3072
1995.682 37.858
1996.791 17.5048
1997.484 16.7564
1998.385 25.0847
1999.444 27.9196
END IONS

BEGIN IONS
TITLE=File7571 Spectrum8747 scans: 12746
PEPMASS=388.34204 623.48645
CHARGE=2+
RTINSECONDS=3868
SCANS=12746
118.006 2.42789
135.313 7.2097
164.903 3.14972
211.955 6.03365
220.872 4.19824
229.472 3.96141
237.882 4.04856
251.003 4.3518
256.892 8.10844
258.993 3.98331
260.094 6.69108
260.927 4.62918
272.085 3.90135
273.904 11.7863
285.981 8.29363
287.420 4.47853
289.899 27.9767
291.774 11.4873
293.071 6.63206
294.910 6.18526
299.943 6.69933
301.788 20.2427
302.954 4.67143
303.862 4.88401
307.919 102.279
308.874 25.6418
314.125 5.50782
316.817 5.96999
318.938 5.54372
325.686 6.39767
327.888 3.17042
332.090 5.81665
332.826 3.65679
334.822 4.93382
342.179 14.2948
343.150 17.1122
344.792 18.1726
346.914 29.2197
348.028 9.68218
349.974 14.963
350.933 8.40425
352.892 13.7806
355.245 11.4636
360.156 4.4049
360.938 38.3935
361.962 27.1532
389.203 8.60529
491.006 13.9809
590.203 11.9496
END IONS

BEGIN IONS
TITLE=File7571 Spectrum8748 scans: 12748
PEPMASS=399.34656 1673.01990
CHARGE=2+
RTINSECONDS=3868
SCANS=12748
111.139 17.4043
113.068 2.62516
118.930 7.77259
129.036 115.616
143.061 12.8853
147.171 11.6648
164.963 13.8994
175.049 7.99765
181.055 8.96506
193.291 4.18195
196.246 6.836
199.463 10.3131
203.053 5.2506
208.074 3.02495
228.527 5.25531
240.071 8.36855
245.225 6.18137
249.865 32.8532
253.253 11.0959
255.258 205.823
257.193 5.00563
262.781 3.75803
270.064 12.2544
272.165 18.7302
273.000 78.8925
278.438 3.979
279.059 4.00413
284.939 15.0558
287.060 7.02169
290.642 7.60687
296.061 4.99846
297.835 4.63231
299.124 34.7741
300.861 244.543
301.717 14.9754
302.967 10.4081
305.147 15.3573
308.436 2.69123
310.089 18.5855
311.895 2.29567
314.982 14.0846
316.103 5.55632
317.023 16.8751
321.674 7.54488
322.946 21.6197
325.195 16.9488
326.937 29.0471
327.970 5.76158
333.221 6.77795
334.309 5.83821
336.982 7.86661
337.932 8.33393
340.829 14.8718
342.227 15.1882
343.443 11.4782
344.274 12.4008
345.047 14.4772
354.199 5.55894
354.930 23.8011
355.933 13.5974
359.278 6.01373
361.652 12.4978
362.794 6.06085
363.786 6.12411
367.759 12.2796
371.988 47.8763
373.044 52.0499
376.958 3.12134
382.962 3.82445
399.153 15.2314
END IONS

BEGIN IONS
TITLE=File7571 Spectrum8749 scans: 12749
PEPMASS=451.90863 558.46448
CHARGE=2+
RTINSECONDS=3869
SCANS=12749
211.442 1.9353
220.100 4.20912
227.061 4.16955
238.115 3.75143
262.248 3.63009
279.237 3.90464
294.954 3.84603
302.439 18.5715
321.172 9.9439
324.879 6.96434
329.809 7.97592
332.030 3.86165
336.246 3.02889
337.975 16.8972
343.363 9.62071
354.010 3.93738
355.230 3.01007
355.988 15.1035
357.019 5.0572
358.175 4.9914
363.216 6.56218
367.009 9.77109
370.418 4.31287
372.823 8.01889
377.134 14.6525
378.047 3.29758
378.745 4.42691
381.050 9.46978
388.934 10.2707
397.785 9.69472
398.814 3.09875
405.820 8.08424
407.779 21.0968
409.436 8.4808
412.029 12.0609
416.039 15.5553
416.974 28.8429
425.178 19.3093
434.118 2.5854
745.432 6.17922
END IONS

BEGIN IONS
TITLE=File7571 Spectrum8750 scans: 12754
PEPMASS=667.17523 3968.55298
CHARGE=3+
RTINSECONDS=3871
SCANS=12754
190.103 9.8933
254.124 12.3016
267.363 4.29497
283.166 3.87124
337.197 5.16406
401.041 3.5769
402.252 4.39036
404.858 4.45256
417.203 9.75342
469.748 4.62339
471.338 5.61373
491.115 6.23357
501.553 5.01952
512.099 2.92902
535.419 12.6684
552.984 5.08951
569.277 6.10158
584.291 9.08374
587.026 12.3789
595.890 3.66304
602.952 5.17138
613.280 6.75503
616.635 5.03549
623.392 3.86405
627.901 20.2593
630.808 13.3523
631.536 7.38603
636.187 4.21395
649.406 7.30522
650.203 13.4133
666.435 44.8655
667.199 7.09666
668.100 11.0077
690.856 8.37736
765.512 5.64407
900.063 15.8558
995.610 7.79522
1495.452 3.66479
1501.619 5.99756
1552.569 5.93506
1553.370 5.82676
1611.117 6.42823
1637.382 4.79967
1646.972 3.16035
1654.132 4.469
1668.968 5.12237
1672.535 19.0271
1682.495 2.94247
1693.008 5.34225
1696.512 7.07711
1697.681 3.04007
1700.884 3.2476
1723.261 6.34966
1728.041 5.56211
1729.584 6.81675
1732.374 4.40148
1736.771 3.82966
1746.012 5.43977
1748.197 18.3494
1751.219 5.74545
1762.635 2.75259
1763.800 4.82298
1775.240 7.76625
1778.432 15.5789
1804.173 4.73813
1806.204 24.5038
1807.106 6.52432
1811.608 7.02991
1812.565 4.63681
1814.431 5.09736
1815.107 5.29771
1816.295 4.14378
1822.043 10.792
1824.600 5.22288
1828.482 2.55652
1829.702 8.88579
1831.039 9.70697
1831.950 8.66141
1833.249 3.18478
1834.201 4.69343
1836.446 10.5262
1841.953 25.0426
1848.130 9.63454
1849.201 29.6428
1850.057 10.7689
1850.843 13.849
1853.052 15.8339
1855.119 8.02129
1858.465 3.68467
1860.275 8.20162
1860.887 8.38923
1862.688 7.1266
1864.855 5.65314
1865.487 3.24654
1866.174 4.23399
1867.142 3.10974
1871.880 18.2439
1872.951 14.1309
1873.994 18.0667
1875.020 21.6444
1875.817 13.3376
1877.341 41.3665
1880.940 22.3159
1881.992 15.9492
1883.677 12.1917
1884.799 17.3176
1885.629 16.8677
1886.314 3.57622
1891.212 28.4014
1892.091 4.37523
1894.086 20.5926
1895.988 16.0642
1897.374 5.58
1898.631 5.28922
1899.487 6.46743
1900.495 7.29717
1901.822 16.8257
1902.599 2.9013
1903.811 3.8452
1904.762 12.6514
1906.296 8.83533
1907.185 8.29517
1908.367 18.5044
1909.347 27.5919
1911.967 40.0471
1914.642 4.21039
1916.878 7.68391
1917.719 11.0198
1918.654 39.7646
1921.144 23.2039
1922.034 17.5807
1923.175 33.9153
1924.052 25.8125
1926.302 4.57542
1927.106 10.7246
1928.511 15.1901
1929.757 22.3303
1931.804 15.215
1932.711 22.6552
1933.832 21.346
1934.848 8.26274
1935.620 18.6379
1936.393 12.9136
1937.432 22.5839
1938.456 17.9833
1940.641 12.9924
1941.478 3.79434
1944.562 41.6553
1945.580 17.7608
1946.462 4.96972
1947.297 16.5258
1948.721 14.0279
1950.003 9.5805
1950.800 5.43707
1952.232 8.56975
1952.869 4.32579
1954.859 29.3439
1955.660 4.74279
1956.604 19.8118
1957.972 12.6423
1962.001 22.4519
1963.003 10.9181
1963.623 11.5929
1964.415 26.5552
1965.360 7.96366
1967.419 15.3306
1968.243 9.84453
1968.874 4.50102
1970.280 22.8537
1970.907 295.788
1971.804 26.2099
1972.438 10.5129
1973.114 7.46537
1973.843 11.6331
1974.717 21.3193
1975.944 29.7365
1977.056 20.0175
1978.135 37.9558
1978.903 9.71164
1980.150 49.8352
1981.478 20.1362
1982.282 27.9812
1982.977 19.8729
1983.965 12.9543
1985.183 22.7309
1986.152 17.0698
1986.936 12.3639
1987.792 16.5652
1988.424 14.7892
1989.065 20.9925
1990.167 3.89217
1990.794 14.8524
1991.773 23.1981
1993.068 35.7407
1995.156 38.5605
1996.101 46.0428
1997.101 20.2032
1998.533 17.2182
1999.826 34.2375
END IONS

BEGIN IONS
TITLE=File7571 Spectrum8751 scans: 12755
PEPMASS=703.21344 2254.88794
CHARGE=3+
RTINSECONDS=3871
SCANS=12755
356.329 7.90719
359.045 6.48764
461.408 4.27589
499.264 11.7571
506.267 2.07112
537.308 3.11952
541.311 12.7422
544.292 7.06915
552.995 13.4756
595.061 5.50413
604.926 10.8215
623.121 6.41918
659.323 4.39594
685.169 3.70725
704.246 4.96095
733.543 10.7839
770.418 7.78279
855.307 4.4546
862.065 5.14906
1241.126 4.40018
1480.730 7.68671
1510.527 6.49202
1538.447 4.54362
1582.587 4.23397
1588.659 8.01199
1619.355 5.32558
1623.459 10.0269
1641.450 12.7859
1651.168 3.40428
1653.823 4.37346
1658.791 10.3565
1667.632 2.93529
1678.794 4.48772
1689.041 3.21472
1697.135 8.78007
1706.569 9.14164
1712.953 5.34377
1715.487 10.0469
1725.828 4.50877
1730.709 6.33118
1734.627 8.65732
1740.363 8.67909
1764.249 4.0209
1766.519 19.903
1772.292 5.47084
1773.782 6.1856
1775.969 9.34296
1778.057 3.42966
1784.738 4.42296
1793.629 7.79929
1796.750 15.6656
1798.436 9.25916
1800.600 5.98725
1805.418 5.43196
1807.235 5.06367
1807.981 2.90492
1811.501 6.37758
1813.100 17.779
1814.890 16.5005
1816.348 5.49327
1817.413 9.73732
1818.413 3.45167
1824.038 3.18242
1824.785 4.7464
1826.617 10.8934
1828.296 11.3658
1829.442 3.90464
1837.689 10.481
1838.719 24.8849
1840.815 7.28076
1841.467 9.75907
1842.653 25.506
1844.872 13.6533
1846.343 10.4407
1847.742 10.2178
1848.500 6.74725
1849.613 21.4227
1853.111 23.2523
1856.562 9.05383
1857.494 6.21622
1858.576 6.64836
1859.808 11.4833
1861.302 8.14104
1862.820 18.8634
1863.958 11.2493
1866.060 2.88807
1868.085 9.30935
1871.156 7.442
1873.189 10.1656
1875.891 7.94017
1877.917 20.1785
1879.530 8.6482
1880.479 2.56111
1881.193 34.1684
1882.077 3.64671
1883.251 11.8928
1884.150 6.25334
1885.298 8.41212
1886.962 13.9592
1887.887 23.5336
1888.880 5.17064
1890.151 16.4667
1890.992 7.40093
1891.911 11.9604
1892.981 16.0477
1895.351 17.7038
1896.819 5.1541
1898.127 9.18381
1899.248 5.18657
1900.514 35.4007
1901.976 19.824
1903.038 33.9906
1903.883 18.2867
1904.724 6.73875
1906.355 16.5659
1907.198 19.0401
1908.408 17.9088
1909.719 24.17
1910.360 3.40526
1911.269 15.6268
1912.365 13.221
1914.008 19.2478
1916.022 3.40915
1916.710 4.60541
1917.499 26.4603
1918.386 3.61147
1919.756 12.8227
1920.955 5.14662
1922.105 16.5065
1923.672 14.731
1924.532 9.43158
1925.781 25.0306
1926.889 4.52158
1927.844 16.3114
1928.708 9.339
1929.823 7.43843
1930.670 41.2061
1931.656 18.2352
1933.027 4.4318
1934.919 12.5415
1935.780 14.4645
1937.598 25.4575
1938.331 15.8181
1940.010 12.8079
1941.279 36.5082
1942.682 25.5828
1944.659 25.4865
1945.761 17.5538
1946.447 8.35646
1948.039 15.3598
1950.159 23.9274
1951.059 34.0061
1951.942 26.4335
1952.603 3.88281
1953.469 19.9449
1954.294 18.5135
1955.246 26.0239
1955.897 11.6503
1957.209 5.0803
1958.073 13.162
1959.028 23.7712
1960.467 19.0444
1962.567 29.5946
1963.486 8.94638
1964.637 26.3387
1965.415 25.4681
1966.505 14.1143
1967.116 4.81169
1968.240 6.53502
1969.882 22.1221
1971.023 31.2967
1972.052 24.7327
1972.895 28.1867
1973.574 3.35879
1974.882 7.03908
1975.672 10.0495
1976.671 9.23831
1977.380 4.80976
1978.102 23.0048
1978.948 36.6933
1980.254 28.09
1981.231 3.26209
1981.906 12.5855
1982.762 18.1519
1984.113 57.4968
1984.865 23.4933
1985.932 13.4413
1987.823 23.6745
1988.801 15.1512
1989.852 25.0157
1990.862 24.8594
1991.616 7.18501
1992.785 152.404
1993.863 27.5599
1994.587 21.1575
1995.337 11.5534
1996.775 21.5484
1997.412 4.65919
1998.398 32.0316
1999.629 29.3362
END IONS

BEGIN IONS
TITLE=File7571 Spectrum8752 scans: 12759
PEPMASS=702.54987 588.46930
CHARGE=3+
RTINSECONDS=3873
SCANS=12759
219.232 3.74694
268.017 5.37639
328.343 5.18309
360.286 13.698
473.203 6.22128
474.185 3.89896
530.289 12.3016
532.271 9.77652
551.119 4.4638
566.672 7.53257
576.037 28.0818
591.002 5.0526
600.889 3.49722
603.590 4.55386
605.962 5.20142
631.382 7.06028
639.756 6.92368
647.675 7.92488
653.352 9.07218
654.005 5.95892
702.677 12.4666
1507.537 6.70696
1512.778 3.4333
1540.491 10.5077
1557.520 4.51045
1578.551 6.04699
1631.320 5.79336
1648.523 6.23306
1657.747 5.0088
1671.240 13.435
1674.464 4.62468
1678.487 3.36671
1679.495 12.8099
1688.742 3.58295
1690.479 9.81377
1698.141 6.24582
1704.972 2.59798
1710.874 6.1508
1712.123 3.53924
1713.227 4.00002
1719.575 3.79763
1740.147 5.8746
1745.087 7.27169
1746.171 6.30302
1749.165 12.0022
1759.295 2.53059
1761.758 7.953
1762.719 10.3001
1763.469 2.71138
1768.707 13.8536
1771.398 6.2634
1772.394 3.39782
1773.893 3.77271
1788.582 3.63536
1789.372 13.5958
1792.589 2.60173
1794.012 2.99033
1796.378 4.10607
1798.933 12.0916
1804.313 3.69748
1806.441 6.52094
1811.425 8.02941
1813.190 4.44287
1820.891 6.10868
1824.074 10.9891
1825.484 11.3077
1826.693 4.54414
1829.384 13.7371
1830.334 6.26162
1834.560 5.57278
1835.605 9.57794
1836.696 6.69757
1838.569 3.06585
1840.319 4.15971
1842.305 3.71222
1843.316 4.23156
1844.308 5.0237
1845.913 11.6933
1847.364 27.8649
1850.451 5.28147
1855.113 16.5943
1856.502 7.95223
1858.044 18.2502
1858.795 5.63558
1859.718 7.97086
1864.953 7.98091
1866.360 4.32362
1867.290 7.02351
1869.618 25.1972
1870.860 9.61709
1872.133 6.72652
1872.777 7.76822
1874.317 9.64906
1875.878 5.57574
1878.711 3.52935
1879.551 7.31996
1880.745 5.62749
1882.730 4.25292
1883.438 9.71179
1885.175 25.8971
1886.321 4.73094
1887.189 6.35456
1889.104 9.67173
1889.852 7.55598
1892.521 20.7859
1893.440 15.4225
1895.657 8.3133
1896.566 5.11283
1897.407 4.16994
1898.259 8.06291
1899.468 17.6377
1902.230 19.827
1903.054 13.8975
1903.701 9.84707
1905.935 31.1203
1907.909 30.2098
1908.901 14.337
1909.655 5.16932
1910.351 6.21163
1911.334 7.79953
1912.123 10.7061
1913.123 13.5935
1914.285 26.8417
1915.349 7.35988
1916.449 17.8322
1917.478 16.8206
1918.861 4.32382
1919.844 9.37696
1921.011 16.0886
1922.324 29.8203
1923.098 15.2556
1923.856 31.8926
1924.675 11.0256
1925.694 7.84678
1926.561 15.7618
1927.457 7.52098
1929.762 31.5114
1931.324 23.7392
1932.450 18.6972
1933.588 18.9461
1935.385 40.1647
1936.267 8.87995
1936.970 17.399
1938.593 21.1934
1939.672 6.71887
1940.309 6.77271
1943.108 8.91156
1943.974 11.109
1944.675 19.0667
1945.447 14.3333
1946.244 15.4628
1947.041 4.98725
1948.058 12.3808
1949.276 16.7045
1950.221 11.6057
1951.356 33.5249
1952.410 16.958
1953.368 5.67664
1956.753 5.02425
1957.841 12.3185
1958.498 18.5672
1959.609 9.28875
1960.282 11.1193
1960.953 9.44337
1963.044 33.125
1964.064 13.1497
1965.093 25.4908
1965.910 6.18999
1967.295 52.6467
1968.984 30.1761
1970.071 27.9412
1971.339 45.4765
1972.731 26.7309
1973.548 13.0972
1975.054 21.0954
1976.280 32.7894
1977.209 8.65393
1978.220 32.7993
1979.119 37.3621
1980.121 29.0797
1981.265 10.9297
1982.634 37.8598
1984.147 25.0415
1985.339 20.4208
1986.133 18.6913
1987.107 32.7777
1988.231 10.8258
1989.542 38.5765
1990.550 12.7621
1991.453 17.4668
1992.196 26.2957
1992.900 7.7009
1994.309 76.9862
1995.429 83.4227
1997.207 23.0048
1997.907 23.968
1999.567 27.7336
END IONS

BEGIN IONS
TITLE=File7571 Spectrum8753 scans: 12761
PEPMASS=388.34219 777.76746
CHARGE=2+
RTINSECONDS=3873
SCANS=12761
111.019 4.20822
130.075 3.37487
135.273 3.07632
136.069 3.53624
151.185 2.64775
156.961 5.45368
183.094 5.00903
189.145 9.72765
193.926 10.5594
210.635 7.41033
212.021 9.13953
230.173 9.25776
238.935 5.6961
253.034 2.53092
269.888 11.4622
271.098 10.2271
273.538 2.57191
274.156 5.77199
275.273 12.2695
276.848 9.36003
279.103 3.82702
281.961 8.47224
284.060 7.44648
286.404 17.7104
287.453 32.5172
288.176 11.5892
288.928 5.83986
289.899 26.2755
290.964 25.3056
293.025 6.32585
295.109 11.2597
296.348 14.1622
298.898 13.7461
300.169 7.50661
302.928 4.70878
303.989 9.00612
305.781 16.3046
307.963 129.018
308.942 15.0014
311.109 9.7692
316.003 10.2811
318.235 9.25152
326.644 3.47701
327.562 4.06078
328.210 8.99655
329.520 6.59008
330.316 14.1277
331.173 6.01871
332.093 4.33168
334.904 5.89933
340.066 17.0542
342.232 7.95077
343.149 19.2606
344.041 23.9072
344.837 9.06859
346.896 16.4209
352.256 20.464
352.897 6.9794
360.888 84.9027
362.110 23.3482
378.822 5.13016
388.609 23.975
389.431 62.1445
397.688 4.9603
488.591 5.18233
509.849 10.0753
END IONS

BEGIN IONS
TITLE=File7571 Spectrum8754 scans: 12808
PEPMASS=624.23566 569.18988
CHARGE=3+
RTINSECONDS=3897
SCANS=12808
207.088 18.533
220.958 29.3827
280.972 31.4574
294.950 20.1892
295.706 2.5373
319.277 4.67578
355.238 3.93323
358.114 2.4863
369.220 33.5163
378.855 3.1926
382.367 2.46177
405.678 3.45391
415.155 3.28901
429.070 13.1433
437.367 4.04758
443.836 7.78789
467.981 6.40732
487.005 3.92489
488.932 7.97595
520.812 4.08756
522.806 7.84919
523.797 10.9759
525.015 7.79507
528.013 3.2572
533.909 19.0922
536.198 3.63741
541.939 6.23924
543.232 5.82664
545.088 3.54089
558.985 3.46835
562.795 5.75757
576.431 9.27645
588.088 3.87905
596.763 22.3746
597.965 6.74984
623.361 9.97309
1410.536 3.0049
1435.362 7.04825
1544.120 3.87249
1561.620 2.48138
1591.644 3.39683
1596.179 4.22308
1605.417 3.69388
1635.671 4.66674
1637.229 6.24923
1640.468 3.20634
1645.648 2.51322
1661.589 4.69473
1663.715 15.5752
1682.767 2.46264
1687.268 3.18866
1691.182 2.63576
1703.497 3.82888
1737.852 4.39238
1740.605 2.64573
1748.186 3.42686
1754.721 5.54759
1756.495 3.77015
1758.592 4.35724
1759.295 2.29255
1760.612 6.30574
1761.620 2.57055
1767.241 5.28375
1769.235 7.0187
1771.162 7.94757
1776.194 9.12648
1780.303 3.27537
1784.440 6.16925
1785.687 12.9124
1786.673 3.29532
1789.226 6.73446
1794.048 14.4732
1796.627 23.4482
1798.919 6.05638
1801.175 5.92756
1808.599 2.60859
1820.249 3.50297
1821.532 24.2833
1824.407 5.54178
1827.820 4.34245
1828.520 5.63153
1830.948 5.2257
1833.434 7.25993
1836.506 6.04108
1837.218 6.5755
1839.333 8.79229
1842.774 11.1784
1846.127 18.9903
1846.892 3.04392
1847.685 7.47547
1849.925 17.1624
1852.678 3.71857
1853.650 20.2268
1854.794 2.16207
1856.042 5.1493
1856.673 7.07626
1858.465 6.10126
1860.689 5.6535
1862.544 14.705
1863.526 12.748
1865.960 15.0355
1866.863 8.20338
1870.223 8.61822
1871.655 10.1091
1874.202 11.5363
1875.549 6.70153
1877.520 5.99642
1879.039 9.34951
1882.065 15.7439
1883.902 3.37996
1884.927 9.14502
END IONS
BEGIN IONS
TITLE=File7571 Spectrum8743 scans: 12700
PEPMASS=388.34247 638.54120
CHARGE=2+
RTINSECONDS=3846
SCANS=12700
118.889 4.1759
159.035 4.00713
164.847 5.71148
172.844 9.89788
183.080 6.02132
190.235 6.35099
192.929 6.58389
196.986 3.29417
203.090 12.5569
215.076 6.29885
215.935 3.59272
238.896 3.53102
241.068 13.7074
242.237 5.14012
247.076 7.42146
255.918 6.22948
259.947 3.65755
260.824 6.28617
268.725 10.7005
273.264 11.2845
276.543 17.1301
277.204 13.0969
278.892 6.38783
281.008 7.266
289.100 14.1343
289.873 66.1982
290.821 17.0342
292.031 10.2146
294.979 5.35311
297.241 7.03396
299.827 2.91651
301.006 16.783
302.928 24.2209
303.742 4.50699
304.894 20.3218
307.990 203.172
308.922 7.72473
315.068 4.53588
316.191 6.21627
317.000 15.9498
324.530 3.24973
326.012 4.23838
329.093 12.5983
333.752 7.46608
335.121 7.93747
339.902 4.22129
341.647 5.65654
343.192 27.5292
344.955 12.0291
346.075 2.88609
346.941 14.0175
348.095 2.62915
350.024 13.6625
350.846 6.57061
351.834 16.9595
356.904 10.8922
360.814 77.6305
361.979 64.8705
388.695 43.9255
389.491 11.0676
END IONS

BEGIN IONS
TITLE=File7571 Spectrum8744 scans: 12702
PEPMASS=387.85715 809.15509
CHARGE=2+
RTINSECONDS=3846
SCANS=12702
140.806 6.11963
147.110 2.58467
156.953 3.62159
164.944 11.2898
172.846 6.16077
180.866 3.58308
182.525 5.8486
188.083 3.94539
214.111 3.2924
221.219 5.60479
230.697 5.57966
232.934 6.57706
251.800 7.67513
256.140 18.6571
257.007 12.7478
260.690 3.1418
263.985 8.40868
265.184 5.93273
267.042 5.34254
268.186 11.663
274.139 3.52541
276.791 8.27429
279.001 7.68517
284.993 8.15984
287.295 7.409
289.931 17.4642
290.961 14.965
291.930 6.228
294.204 30.0255
295.096 7.24877
299.167 4.33279
302.923 1.91146
304.449 3.27559
307.932 163.735
308.967 22.5531
311.265 2.75903
312.146 6.40307
313.831 5.50084
316.006 8.70168
316.910 13.6383
318.322 6.72798
324.876 6.19477
325.864 3.3013
329.332 3.40315
334.910 4.27879
341.024 4.38357
342.075 5.66029
342.791 4.77427
343.749 11.883
345.010 30.3204
349.976 5.36933
351.047 8.30725
351.829 46.9841
353.591 5.73278
354.745 9.19587
360.867 67.2173
362.065 21.0855
370.145 3.04474
387.638 12.8331
388.369 19.1224
389.230 5.72567
518.195 11.6365
END IONS

BEGIN IONS
TITLE=File7571 Spectrum8745 scans: 12712
PEPMASS=399.34668 1680.01636
CHARGE=2+
RTINSECONDS=3851
SCANS=12712
111.112 7.1723
119.115 8.23012
126.969 10.7702
128.998 79.2252
131.026 3.32252
139.254 7.27362
149.172 3.85519
164.884 6.91941
199.015 7.00202
205.079 10.1658
225.192 2.78613
243.023 3.39352
244.301 2.49796
245.103 5.2561
247.990 3.87667
249.884 8.83946
254.596 31.7016
255.236 185.427
255.966 9.66712
256.744 5.17234
259.006 3.92601
262.885 4.87882
268.630 7.1515
270.342 13.2404
271.869 13.473
273.197 17.5768
278.600 12.6629
280.764 3.93999
282.908 2.2626
284.823 17.1472
286.036 35.7062
290.911 3.99106
297.053 6.12994
299.200 21.5823
300.798 403.116
301.762 26.2712
303.963 6.05253
304.879 36.4666
307.925 2.64912
308.975 13.8637
309.893 17.7962
311.002 9.58598
314.990 2.76359
316.836 16.7454
318.976 12.3313
319.849 18.9787
321.117 37.1689
322.883 25.2788
326.876 29.9997
327.896 18.3971
336.011 11.1804
336.987 8.38837
342.169 4.85511
343.131 38.6741
344.863 34.5497
352.285 2.89286
353.917 7.6325
354.894 24.8936
355.836 13.0142
358.125 17.4217
362.786 41.4983
369.928 7.30418
371.164 5.42402
371.941 19.1606
372.888 35.9379
382.015 3.5223
399.103 27.072
402.366 6.6036
END IONS

BEGIN IONS
TITLE=File7571 Spectrum8746 scans: 12724
PEPMASS=832.24042 692.75684
CHARGE=3+
RTINSECONDS=3857
SCANS=12724
249.506 4.64243
267.102 29.8116
281.157 3.26949
341.071 3.75152
355.157 30.5104
580.842 3.30087
585.381 5.24246
608.615 8.54631
623.278 23.1042
630.052 5.53865
643.890 8.79767
678.028 9.23944
696.192 3.76381
697.080 8.69244
717.852 4.71912
734.288 5.34232
738.900 8.62795
740.165 8.28761
741.984 2.55415
751.983 9.56292
752.699 2.50487
760.895 10.7423
765.976 11.3213
768.186 9.41729
786.847 5.8903
795.840 9.97001
799.155 21.4771
1138.037 12.8666
1149.698 10.3096
1514.018 4.57547
1516.780 7.60573
1523.980 2.93433
1533.329 8.151
1543.587 7.29461
1546.882 7.8771
1557.581 4.18647
1572.876 10.4389
1620.679 2.23525
1623.556 2.78975
1652.750 2.95203
1675.505 4.75389
1677.491 11.1466
1713.594 4.7755
1719.843 4.67997
1720.607 2.48019
1735.838 2.89546
1742.267 7.97639
1745.127 9.20785
1756.921 3.71597
1765.620 3.34145
1784.419 8.89387
1790.353 6.03836
1794.048 17.8515
1802.342 10.1733
1802.947 8.06639
1806.968 8.94071
1809.011 10.3706
1812.925 7.51191
1815.279 4.08441
1816.054 11.0983
1817.630 2.51658
1821.935 6.0292
1823.258 3.61759
1825.815 4.0373
1827.710 19.7156
1829.938 35.1524
1831.054 12.2382
1832.740 3.59265
1834.825 7.72573
1835.516 5.63535
1837.374 7.04068
1838.148 12.5804
1840.325 7.1044
1841.259 4.33518
1842.700 8.14563
1844.485 17.6094
1846.553 22.8619
1847.245 30.7255
1849.562 6.88952
1850.241 5.0961
1851.450 23.3488
1853.635 4.44975
1855.277 8.23015
1857.003 12.7503
1858.443 3.40458
1859.581 6.36058
1862.373 26.8192
1863.506 4.88761
1864.258 5.81194
1865.488 2.31546
1866.999 11.4922
1870.020 8.52187
1873.443 5.04993
1874.523 14.0779
1875.525 6.56487
1876.494 16.3517
1877.586 5.79852
1879.665 4.16061
1880.847 11.7936
1882.204 21.7303
1883.376 2.25206
1885.755 22.424
1886.435 3.19956
1889.268 14.6084
1890.490 15.4874
1891.284 14.2439
1892.867 6.49013
1893.735 8.60473
1894.574 6.64389
1897.094 9.71632
1899.064 17.4034
1901.302 22.1332
1902.990 8.12094
1904.236 21.3566
1904.854 12.1033
1905.833 4.82819
1906.550 7.42355
1907.380 24.1866
1908.279 11.5073
1909.781 11.1503
1911.215 7.06862
1911.951 9.64498
1913.008 6.47774
1914.543 9.44726
1915.848 37.17
1917.508 2.93857
1918.698 16.4696
1921.020 13.733
1921.701 3.54763
1922.672 17.5921
1924.243 6.18751
1924.953 2.42672
1926.017 4.5701
1926.932 15.1248
1928.014 3.64947
1929.244 7.21279
1930.593 9.71158
1931.219 3.05966
1932.382 21.8502
1933.250 12.9557
1934.501 7.1065
1935.830 21.9319
1936.936 12.7395
1937.749 4.94461
1938.879 2.51919
1940.068 7.00968
1941.224 19.3431
1942.062 12.5762
1942.840 24.6782
1943.968 22.692
1944.942 11.1904
1945.556 7.67166
1946.344 11.6186
1947.560 15.5768
1948.413 17.9063
1949.266 13.7957
1951.698 19.1107
1952.650 13.9188
1954.204 21.2465
1955.793 6.19802
1956.951 6.09254
1958.218 20.686
1959.403 19.5485
1960.058 13.7424
1961.022 2.88772
1961.703 7.51644
1962.408 18.602
1963.902 8.16304
1965.088 28.5955
1965.926 16.7077
1966.760 29.5618
1967.917 7.21572
1968.970 22.6039
1970.021 19.2827
1971.688 33.3286
1973.638 18.1579
1974.340 17.1398
1975.185 11.5256
1975.991 8.99103
1977.263 10.2914
1978.032 6.09153
1978.902 15.6731
1980.425 20.3948
1981.377 30.4961
1982.510 23.9004
1983.689 10.3601
1984.607 22.3714
1985.506 9.25575
1986.407 35.5946
1987.499 28.1129
1988.623 13.5794
1989.611 23.4817
1990.534 30.7705
1991.594 42.9084
1992.944 34.6982
1994.835 15.3072
1995.682 37.858
1996.791 17.5048
1997.484 16.7564
1998.385 25.0847
1999.444 27.9196
END IONS

BEGIN IONS
TITLE=File7571 Spectrum8747 scans: 12746
PEPMASS=388.34204 623.48645
CHARGE=2+
RTINSECONDS=3868
SCANS=12746
118.006 2.42789
135.313 7.2097
164.903 3.14972
211.955 6.03365
220.872 4.19824
229.472 3.96141
237.882 4.04856
251.003 4.3518
256.892 8.10844
258.993 3.98331
260.094 6.69108
260.927 4.62918
272.085 3.90135
273.904 11.7863
285.981 8.29363
287.420 4.47853
289.899 27.9767
291.774 11.4873
293.071 6.63206
294.910 6.18526
299.943 6.69933
301.788 20.2427
302.954 4.67143
303.862 4.88401
307.919 102.279
308.874 25.6418
314.125 5.50782
316.817 5.96999
318.938 5.54372
325.686 6.39767
327.888 3.17042
332.090 5.81665
332.826 3.65679
334.822 4.93382
342.179 14.2948
343.150 17.1122
344.792 18.1726
346.914 29.2197
348.028 9.68218
349.974 14.963
350.933 8.40425
352.892 13.7806
355.245 11.4636
360.156 4.4049
360.938 38.3935
361.962 27.1532
389.203 8.60529
491.006 13.9809
590.203 11.9496
END IONS

BEGIN IONS
TITLE=File7571 Spectrum8748 scans: 12748
PEPMASS=399.34656 1673.01990
CHARGE=2+
RTINSECONDS=3868
SCANS=12748
111.139 17.4043
113.068 2.62516
118.930 7.77259
129.036 115.616
143.061 12.8853
147.171 11.6648
164.963 13.8994
175.049 7.99765
181.055 8.96506
193.291 4.18195
196.246 6.836
199.463 10.3131
203.053 5.2506
208.074 3.02495
228.527 5.25531
240.071 8.36855
245.225 6.18137
249.865 32.8532
253.253 11.0959
255.258 205.823
257.193 5.00563
262.781 3.75803
270.064 12.2544
272.165 18.7302
273.000 78.8925
278.438 3.979
279.059 4.00413
284.939 15.0558
287.060 7.02169
290.642 7.60687
296.061 4.99846
297.835 4.63231
299.124 34.7741
300.861 244.543
301.717 14.9754
302.967 10.4081
305.147 15.3573
308.436 2.69123
310.089 18.5855
311.895 2.29567
314.982 14.0846
316.103 5.55632
317.023 16.8751
321.674 7.54488
322.946 21.6197
325.195 16.9488
326.937 29.0471
327.970 5.76158
333.221 6.77795
334.309 5.83821
336.982 7.86661
337.932 8.33393
340.829 14.8718
342.227 15.1882
343.443 11.4782
344.274 12.4008
345.047 14.4772
354.199 5.55894
354.930 23.8011
355.933 13.5974
359.278 6.01373
361.652 12.4978
362.794 6.06085
363.786 6.12411
367.759 12.2796
371.988 47.8763
373.044 52.0499
376.958 3.12134
382.962 3.82445
399.153 15.2314
END IONS

BEGIN IONS
TITLE=File7571 Spectrum8749 scans: 12749
PEPMASS=451.90863 558.46448
CHARGE=2+
RTINSECONDS=3869
SCANS=12749
211.442 1.9353
220.100 4.20912
227.061 4.16955
238.115 3.75143
262.248 3.63009
279.237 3.90464
294.954 3.84603
302.439 18.5715
321.172 9.9439
324.879 6.96434
329.809 7.97592
332.030 3.86165
336.246 3.02889
337.975 16.8972
343.363 9.62071
354.010 3.93738
355.230 3.01007
355.988 15.1035
357.019 5.0572
358.175 4.9914
363.216 6.56218
367.009 9.77109
370.418 4.31287
372.823 8.01889
377.134 14.6525
378.047 3.29758
378.745 4.42691
381.050 9.46978
388.934 10.2707
397.785 9.69472
398.814 3.09875
405.820 8.08424
407.779 21.0968
409.436 8.4808
412.029 12.0609
416.039 15.5553
416.974 28.8429
425.178 19.3093
434.118 2.5854
745.432 6.17922
END IONS

BEGIN IONS
TITLE=File7571 Spectrum8750 scans: 12754
PEPMASS=667.17523 3968.55298
CHARGE=3+
RTINSECONDS=3871
SCANS=12754
190.103 9.8933
254.124 12.3016
267.363 4.29497
283.166 3.87124
337.197 5.16406
401.041 3.5769
402.252 4.39036
404.858 4.45256
417.203 9.75342
469.748 4.62339
471.338 5.61373
491.115 6.23357
501.553 5.01952
512.099 2.92902
535.419 12.6684
552.984 5.08951
569.277 6.10158
584.291 9.08374
587.026 12.3789
595.890 3.66304
602.952 5.17138
613.280 6.75503
616.635 5.03549
623.392 3.86405
627.901 20.2593
630.808 13.3523
631.536 7.38603
636.187 4.21395
649.406 7.30522
650.203 13.4133
666.435 44.8655
667.199 7.09666
668.100 11.0077
690.856 8.37736
765.512 5.64407
900.063 15.8558
995.610 7.79522
1495.452 3.66479
1501.619 5.99756
1552.569 5.93506
1553.370 5.82676
1611.117 6.42823
1637.382 4.79967
1646.972 3.16035
1654.132 4.469
1668.968 5.12237
1672.535 19.0271
1682.495 2.94247
1693.008 5.34225
1696.512 7.07711
1697.681 3.04007
1700.884 3.2476
1723.261 6.34966
1728.041 5.56211
1729.584 6.81675
1732.374 4.40148
1736.771 3.82966
1746.012 5.43977
1748.197 18.3494
1751.219 5.74545
1762.635 2.75259
1763.800 4.82298
1775.240 7.76625
1778.432 15.5789
1804.173 4.73813
1806.204 24.5038
1807.106 6.52432
1811.608 7.02991
1812.565 4.63681
1814.431 5.09736
1815.107 5.29771
1816.295 4.14378
1822.043 10.792
1824.600 5.22288
1828.482 2.55652
1829.702 8.88579
1831.039 9.70697
1831.950 8.66141
1833.249 3.18478
1834.201 4.69343
1836.446 10.5262
1841.953 25.0426
1848.130 9.63454
1849.201 29.6428
1850.057 10.7689
1850.843 13.849
1853.052 15.8339
1855.119 8.02129
1858.465 3.68467
1860.275 8.20162
1860.887 8.38923
1862.688 7.1266
1864.855 5.65314
1865.487 3.24654
1866.174 4.23399
1867.142 3.10974
1871.880 18.2439
1872.951 14.1309
1873.994 18.0667
1875.020 21.6444
1875.817 13.3376
1877.341 41.3665
1880.940 22.3159
1881.992 15.9492
1883.677 12.1917
1884.799 17.3176
1885.629 16.8677
1886.314 3.57622
1891.212 28.4014
1892.091 4.37523
1894.086 20.5926
1895.988 16.0642
1897.374 5.58
1898.631 5.28922
1899.487 6.46743
1900.495 7.29717
1901.822 16.8257
1902.599 2.9013
1903.811 3.8452
1904.762 12.6514
1906.296 8.83533
1907.185 8.29517
1908.367 18.5044
1909.347 27.5919
1911.967 40.0471
1914.642 4.21039
1916.878 7.68391
1917.719 11.0198
1918.654 39.7646
1921.144 23.2039
1922.034 17.5807
1923.175 33.9153
1924.052 25.8125
1926.302 4.57542
1927.106 10.7246
1928.511 15.1901
1929.757 22.3303
1931.804 15.215
1932.711 22.6552
1933.832 21.346
1934.848 8.26274
1935.620 18.6379
1936.393 12.9136
1937.432 22.5839
1938.456 17.9833
1940.641 12.9924
1941.478 3.79434
1944.562 41.6553
1945.580 17.7608
1946.462 4.96972
1947.297 16.5258
1948.721 14.0279
1950.003 9.5805
1950.800 5.43707
1952.232 8.56975
1952.869 4.32579
1954.859 29.3439
1955.660 4.74279
1956.604 19.8118
1957.972 12.6423
1962.001 22.4519
1963.003 10.9181
1963.623 11.5929
1964.415 26.5552
1965.360 7.96366
1967.419 15.3306
1968.243 9.84453
1968.874 4.50102
1970.280 22.8537
1970.907 295.788
1971.804 26.2099
1972.438 10.5129
1973.114 7.46537
1973.843 11.6331
1974.717 21.3193
1975.944 29.7365
1977.056 20.0175
1978.135 37.9558
1978.903 9.71164
1980.150 49.8352
1981.478 20.1362
1982.282 27.9812
1982.977 19.8729
1983.965 12.9543
1985.183 22.7309
1986.152 17.0698
1986.936 12.3639
1987.792 16.5652
1988.424 14.7892
1989.065 20.9925
1990.167 3.89217
1990.794 14.8524
1991.773 23.1981
1993.068 35.7407
1995.156 38.5605
1996.101 46.0428
1997.101 20.2032
1998.533 17.2182
1999.826 34.2375
END IONS

BEGIN IONS
TITLE=File7571 Spectrum8751 scans: 12755
PEPMASS=703.21344 2254.88794
CHARGE=3+
RTINSECONDS=3871
SCANS=12755
356.329 7.90719
359.045 6.48764
461.408 4.27589
499.264 11.7571
506.267 2.07112
537.308 3.11952
541.311 12.7422
544.292 7.06915
552.995 13.4756
595.061 5.50413
604.926 10.8215
623.121 6.41918
659.323 4.39594
685.169 3.70725
704.246 4.96095
733.543 10.7839
770.418 7.78279
855.307 4.4546
862.065 5.14906
1241.126 4.40018
1480.730 7.68671
1510.527 6.49202
1538.447 4.54362
1582.587 4.23397
1588.659 8.01199
1619.355 5.32558
1623.459 10.0269
1641.450 12.7859
1651.168 3.40428
1653.823 4.37346
1658.791 10.3565
1667.632 2.93529
1678.794 4.48772
1689.041 3.21472
1697.135 8.78007
1706.569 9.14164
1712.953 5.34377
1715.487 10.0469
1725.828 4.50877
1730.709 6.33118
1734.627 8.65732
1740.363 8.67909
1764.249 4.0209
1766.519 19.903
1772.292 5.47084
1773.782 6.1856
1775.969 9.34296
1778.057 3.42966
1784.738 4.42296
1793.629 7.79929
1796.750 15.6656
1798.436 9.25916
1800.600 5.98725
1805.418 5.43196
1807.235 5.06367
1807.981 2.90492
1811.501 6.37758
1813.100 17.779
1814.890 16.5005
1816.348 5.49327
1817.413 9.73732
1818.413 3.45167
1824.038 3.18242
1824.785 4.7464
1826.617 10.8934
1828.296 11.3658
1829.442 3.90464
1837.689 10.481
1838.719 24.8849
1840.815 7.28076
1841.467 9.75907
1842.653 25.506
1844.872 13.6533
1846.343 10.4407
1847.742 10.2178
1848.500 6.74725
1849.613 21.4227
1853.111 23.2523
1856.562 9.05383
1857.494 6.21622
1858.576 6.64836
1859.808 11.4833
1861.302 8.14104
1862.820 18.8634
1863.958 11.2493
1866.060 2.88807
1868.085 9.30935
1871.156 7.442
1873.189 10.1656
1875.891 7.94017
1877.917 20.1785
1879.530 8.6482
1880.479 2.56111
1881.193 34.1684
1882.077 3.64671
1883.251 11.8928
1884.150 6.25334
1885.298 8.41212
1886.962 13.9592
1887.887 23.5336
1888.880 5.17064
1890.151 16.4667
1890.992 7.40093
1891.911 11.9604
1892.981 16.0477
1895.351 17.7038
1896.819 5.1541
1898.127 9.18381
1899.248 5.18657
1900.514 35.4007
1901.976 19.824
1903.038 33.9906
1903.883 18.2867
1904.724 6.73875
1906.355 16.5659
1907.198 19.0401
1908.408 17.9088
1909.719 24.17
1910.360 3.40526
1911.269 15.6268
1912.365 13.221
1914.008 19.2478
1916.022 3.40915
1916.710 4.60541
1917.499 26.4603
1918.386 3.61147
1919.756 12.8227
1920.955 5.14662
1922.105 16.5065
1923.672 14.731
1924.532 9.43158
1925.781 25.0306
1926.889 4.52158
1927.844 16.3114
1928.708 9.339
1929.823 7.43843
1930.670 41.2061
1931.656 18.2352
1933.027 4.4318
1934.919 12.5415
1935.780 14.4645
1937.598 25.4575
1938.331 15.8181
1940.010 12.8079
1941.279 36.5082
1942.682 25.5828
1944.659 25.4865
1945.761 17.5538
1946.447 8.35646
1948.039 15.3598
1950.159 23.9274
1951.059 34.0061
1951.942 26.4335
1952.603 3.88281
1953.469 19.9449
1954.294 18.5135
1955.246 26.0239
1955.897 11.6503
1957.209 5.0803
1958.073 13.162
1959.028 23.7712
1960.467 19.0444
1962.567 29.5946
1963.486 8.94638
1964.637 26.3387
1965.415 25.4681
1966.505 14.1143
1967.116 4.81169
1968.240 6.53502
1969.882 22.1221
1971.023 31.2967
1972.052 24.7327
1972.895 28.1867
1973.574 3.35879
1974.882 7.03908
1975.672 10.0495
1976.671 9.23831
1977.380 4.80976
1978.102 23.0048
1978.948 36.6933
1980.254 28.09
1981.231 3.26209
1981.906 12.5855
1982.762 18.1519
1984.113 57.4968
1984.865 23.4933
1985.932 13.4413
1987.823 23.6745
1988.801 15.1512
1989.852 25.0157
1990.862 24.8594
1991.616 7.18501
1992.785 152.404
1993.863 27.5599
1994.587 21.1575
1995.337 11.5534
1996.775 21.5484
1997.412 4.65919
1998.398 32.0316
1999.629 29.3362
END IONS

BEGIN IONS
TITLE=File7571 Spectrum8752 scans: 12759
PEPMASS=702.54987 588.46930
CHARGE=3+
RTINSECONDS=3873
SCANS=12759
219.232 3.74694
268.017 5.37639
328.343 5.18309
360.286 13.698
473.203 6.22128
474.185 3.89896
530.289 12.3016
532.271 9.77652
551.119 4.4638
566.672 7.53257
576.037 28.0818
591.002 5.0526
600.889 3.49722
603.590 4.55386
605.962 5.20142
631.382 7.06028
639.756 6.92368
647.675 7.92488
653.352 9.07218
654.005 5.95892
702.677 12.4666
1507.537 6.70696
1512.778 3.4333
1540.491 10.5077
1557.520 4.51045
1578.551 6.04699
1631.320 5.79336
1648.523 6.23306
1657.747 5.0088
1671.240 13.435
1674.464 4.62468
1678.487 3.36671
1679.495 12.8099
1688.742 3.58295
1690.479 9.81377
1698.141 6.24582
1704.972 2.59798
1710.874 6.1508
1712.123 3.53924
1713.227 4.00002
1719.575 3.79763
1740.147 5.8746
1745.087 7.27169
1746.171 6.30302
1749.165 12.0022
1759.295 2.53059
1761.758 7.953
1762.719 10.3001
1763.469 2.71138
1768.707 13.8536
1771.398 6.2634
1772.394 3.39782
1773.893 3.77271
1788.582 3.63536
1789.372 13.5958
1792.589 2.60173
1794.012 2.99033
1796.378 4.10607
1798.933 12.0916
1804.313 3.69748
1806.441 6.52094
1811.425 8.02941
1813.190 4.44287
1820.891 6.10868
1824.074 10.9891
1825.484 11.3077
1826.693 4.54414
1829.384 13.7371
1830.334 6.26162
1834.560 5.57278
1835.605 9.57794
1836.696 6.69757
1838.569 3.06585
1840.319 4.15971
1842.305 3.71222
1843.316 4.23156
1844.308 5.0237
1845.913 11.6933
1847.364 27.8649
1850.451 5.28147
1855.113 16.5943
1856.502 7.95223
1858.044 18.2502
1858.795 5.63558
1859.718 7.97086
1864.953 7.98091
1866.360 4.32362
1867.290 7.02351
1869.618 25.1972
1870.860 9.61709
1872.133 6.72652
1872.777 7.76822
1874.317 9.64906
1875.878 5.57574
1878.711 3.52935
1879.551 7.31996
1880.745 5.62749
1882.730 4.25292
1883.438 9.71179
1885.175 25.8971
1886.321 4.73094
1887.189 6.35456
1889.104 9.67173
1889.852 7.55598
1892.521 20.7859
1893.440 15.4225
1895.657 8.3133
1896.566 5.11283
1897.407 4.16994
1898.259 8.06291
1899.468 17.6377
1902.230 19.827
1903.054 13.8975
1903.701 9.84707
1905.935 31.1203
1907.909 30.2098
1908.901 14.337
1909.655 5.16932
1910.351 6.21163
1911.334 7.79953
1912.123 10.7061
1913.123 13.5935
1914.285 26.8417
1915.349 7.35988
1916.449 17.8322
1917.478 16.8206
1918.861 4.32382
1919.844 9.37696
1921.011 16.0886
1922.324 29.8203
1923.098 15.2556
1923.856 31.8926
1924.675 11.0256
1925.694 7.84678
1926.561 15.7618
1927.457 7.52098
1929.762 31.5114
1931.324 23.7392
1932.450 18.6972
1933.588 18.9461
1935.385 40.1647
1936.267 8.87995
1936.970 17.399
1938.593 21.1934
1939.672 6.71887
1940.309 6.77271
1943.108 8.91156
1943.974 11.109
1944.675 19.0667
1945.447 14.3333
1946.244 15.4628
1947.041 4.98725
1948.058 12.3808
1949.276 16.7045
1950.221 11.6057
1951.356 33.5249
1952.410 16.958
1953.368 5.67664
1956.753 5.02425
1957.841 12.3185
1958.498 18.5672
1959.609 9.28875
1960.282 11.1193
1960.953 9.44337
1963.044 33.125
1964.064 13.1497
1965.093 25.4908
1965.910 6.18999
1967.295 52.6467
1968.984 30.1761
1970.071 27.9412
1971.339 45.4765
1972.731 26.7309
1973.548 13.0972
1975.054 21.0954
1976.280 32.7894
1977.209 8.65393
1978.220 32.7993
1979.119 37.3621
1980.121 29.0797
1981.265 10.9297
1982.634 37.8598
1984.147 25.0415
1985.339 20.4208
1986.133 18.6913
1987.107 32.7777
1988.231 10.8258
1989.542 38.5765
1990.550 12.7621
1991.453 17.4668
1992.196 26.2957
1992.900 7.7009
1994.309 76.9862
1995.429 83.4227
1997.207 23.0048
1997.907 23.968
1999.567 27.7336
END IONS

BEGIN IONS
TITLE=File7571 Spectrum8753 scans: 12761
PEPMASS=388.34219 777.76746
CHARGE=2+
RTINSECONDS=3873
SCANS=12761
111.019 4.20822
130.075 3.37487
135.273 3.07632
136.069 3.53624
151.185 2.64775
156.961 5.45368
183.094 5.00903
189.145 9.72765
193.926 10.5594
210.635 7.41033
212.021 9.13953
230.173 9.25776
238.935 5.6961
253.034 2.53092
269.888 11.4622
271.098 10.2271
273.538 2.57191
274.156 5.77199
275.273 12.2695
276.848 9.36003
279.103 3.82702
281.961 8.47224
284.060 7.44648
286.404 17.7104
287.453 32.5172
288.176 11.5892
288.928 5.83986
289.899 26.2755
290.964 25.3056
293.025 6.32585
295.109 11.2597
296.348 14.1622
298.898 13.7461
300.169 7.50661
302.928 4.70878
303.989 9.00612
305.781 16.3046
307.963 129.018
308.942 15.0014
311.109 9.7692
316.003 10.2811
318.235 9.25152
326.644 3.47701
327.562 4.06078
328.210 8.99655
329.520 6.59008
330.316 14.1277
331.173 6.01871
332.093 4.33168
334.904 5.89933
340.066 17.0542
342.232 7.95077
343.149 19.2606
344.041 23.9072
344.837 9.06859
346.896 16.4209
352.256 20.464
352.897 6.9794
360.888 84.9027
362.110 23.3482
378.822 5.13016
388.609 23.975
389.431 62.1445
397.688 4.9603
488.591 5.18233
509.849 10.0753
END IONS

BEGIN IONS
TITLE=File7571 Spectrum8754 scans: 12808
PEPMASS=624.23566 569.18988
CHARGE=3+
RTINSECONDS=3897
SCANS=12808
207.088 18.533
220.958 29.3827
280.972 31.4574
294.950 20.1892
295.706 2.5373
319.277 4.67578
355.238 3.93323
358.114 2.4863
369.220 33.5163
378.855 3.1926
382.367 2.46177
405.678 3.45391
415.155 3.28901
429.070 13.1433
437.367 4.04758
443.836 7.78789
467.981 6.40732
487.005 3.92489
488.932 7.97595
520.812 4.08756
522.806 7.84919
523.797 10.9759
525.015 7.79507
528.013 3.2572
533.909 19.0922
536.198 3.63741
541.939 6.23924
543.232 5.82664
545.088 3.54089
558.985 3.46835
562.795 5.75757
576.431 9.27645
588.088 3.87905
596.763 22.3746
597.965 6.74984
623.361 9.97309
1410.536 3.0049
1435.362 7.04825
1544.120 3.87249
1561.620 2.48138
1591.644 3.39683
1596.179 4.22308
1605.417 3.69388
1635.671 4.66674
1637.229 6.24923
1640.468 3.20634
1645.648 2.51322
1661.589 4.69473
1663.715 15.5752
1682.767 2.46264
1687.268 3.18866
1691.182 2.63576
1703.497 3.82888
1737.852 4.39238
1740.605 2.64573
1748.186 3.42686
1754.721 5.54759
1756.495 3.77015
1758.592 4.35724
1759.295 2.29255
1760.612 6.30574
1761.620 2.57055
1767.241 5.28375
1769.235 7.0187
1771.162 7.94757
1776.194 9.12648
1780.303 3.27537
1784.440 6.16925
1785.687 12.9124
1786.673 3.29532
1789.226 6.73446
1794.048 14.4732
1796.627 23.4482
1798.919 6.05638
1801.175 5.92756
1808.599 2.60859
1820.249 3.50297
1821.532 24.2833
1824.407 5.54178
1827.820 4.34245
1828.520 5.63153
1830.948 5.2257
1833.434 7.25993
1836.506 6.04108
1837.218 6.5755
1839.333 8.79229
1842.774 11.1784
1846.127 18.9903
1846.892 3.04392
1847.685 7.47547
1849.925 17.1624
1852.678 3.71857
1853.650 20.2268
1854.794 2.16207
1856.042 5.1493
1856.673 7.07626
1858.465 6.10126
1860.689 5.6535
1862.544 14.705
1863.526 12.748
1865.960 15.0355
1866.863 8.20338
1870.223 8.61822
1871.655 10.1091
1874.202 11.5363
1875.549 6.70153
1877.520 5.99642
1879.039 9.34951
1882.065 15.7439
1883.902 3.37996
1884.927 9.14502
END IONS

BEGIN IONS
TITLE=File7571 Spectrum1686 scans: 3781
PEPMASS=653.36169 15968.76855
CHARGE=2+
RTINSECONDS=1414
SCANS=3781
187.193 3.66286
188.175 17.5383
190.092 7.04759
191.061 2.92752
192.829 3.34971
194.009 5.78856
195.187 8.4888
196.073 5.27464
199.052 17.1425
200.177 6.98466
201.102 7.56419
204.022 18.6047
206.351 16.6177
207.122 5.1833
210.177 3.31038
211.098 4.0838
213.118 4.225
214.011 12.5034
214.882 9.5585
216.157 4.1254
219.127 2.82041
221.140 4.779
223.122 237.509
224.272 15.9317
225.070 22.2806
226.227 13.679
227.220 3.13958
228.129 7.64793
229.099 5.02079
231.105 20.7683
232.275 23.0697
233.256 33.1142
234.237 35.2761
236.168 7.33904
238.019 34.1389
239.173 19.0772
240.053 9.11247
242.095 16.1745
243.145 15.8003
244.084 4.38708
245.010 11.2719
246.396 14.3986
247.229 3.52592
249.187 24.37
251.132 464.938
252.143 62.0144
253.460 10.901
254.178 6.24264
256.064 4.95555
257.988 3.57908
259.192 11.2371
260.331 24.2296
261.062 19.2111
266.240 4.23901
267.205 8.29342
268.144 10.8007
269.277 3.2671
271.214 3.02718
272.115 15.7806
274.342 10.8764
275.115 10.7479
276.283 3.42401
281.093 4.049
282.131 22.2782
284.148 24.7974
285.113 7.57762
286.005 3.24956
287.143 5.9148
289.253 19.1331
290.389 21.7634
292.080 23.8594
293.094 5.70071
294.327 13.5305
298.952 17.417
300.069 11.4978
300.946 16.8021
302.387 14.8567
304.441 15.1461
305.462 9.94061
306.305 29.7387
308.295 4.64569
309.086 4.34696
309.875 15.3293
311.073 16.3129
312.232 11.4794
313.182 17.2156
314.418 17.9073
317.271 2.85921
318.025 10.9262
320.096 4.6075
321.280 4.19291
322.345 11.4032
323.229 13.4297
324.112 10.4595
325.931 17.7956
327.086 13.4088
328.079 19.2963
330.152 15.1559
331.240 67.8984
332.189 351.183
333.065 64.3701
334.021 29.7623
338.251 24.6448
339.150 52.9585
340.212 30.5578
341.304 3.92718
342.128 21.8086
343.357 6.46685
344.205 10.2743
345.196 23.3967
347.247 5.61488
348.256 11.3278
349.342 20.9962
350.267 78.4129
351.250 49.2661
353.172 21.5008
354.468 12.2091
355.117 4.38443
356.579 18.0016
357.298 28.4661
358.205 14.4637
358.805 8.72249
360.117 7.81335
361.243 16.5733
363.132 14.4493
364.178 4.52591
365.267 5.2706
366.268 5.27644
367.219 10.5426
369.267 9.15602
370.542 6.26655
371.186 8.52328
372.269 2.80056
373.372 50.2438
374.346 22.3208
375.338 5.66881
376.341 7.18333
378.268 37.2752
380.560 15.6811
381.163 15.134
382.360 11.7722
383.206 12.2514
385.487 4.73154
386.286 33.4077
387.065 4.51671
388.280 2.93674
389.287 18.5017
390.100 8.33616
391.151 10.6596
392.206 16.0562
393.162 6.35871
395.271 29.2906
396.282 19.6921
397.270 6.01682
398.454 7.20474
399.295 35.5029
400.536 17.7092
401.356 7.80672
402.159 33.6903
403.264 13.9213
404.187 4.77308
405.296 27.9081
406.409 23.9909
409.274 8.52691
410.280 61.226
411.282 35.399
412.242 8.29483
414.448 8.60345
415.173 16.1446
416.275 10.1642
417.138 9.87278
418.207 83.7301
419.294 7.0099
421.170 12.4144
425.378 26.6427
426.447 14.0501
427.168 20.325
428.026 18.8183
429.232 32.4173
430.691 26.6663
432.182 14.4115
433.201 8.32444
435.576 12.5491
436.385 19.0118
437.270 11.3303
438.353 5.30945
439.396 21.65
440.180 34.7993
441.239 3.78773
442.249 28.9659
444.008 25.7809
445.325 33.7254
446.323 11.9504
447.528 24.1399
448.678 14.0814
450.682 66.6666
452.346 7.50569
453.331 116.15
455.283 8.60726
456.236 44.3242
457.325 19.4777
458.227 66.8858
459.301 67.6203
460.438 21.3321
461.370 38.9239
463.028 5.12943
463.871 14.9954
465.237 213.343
466.472 86.3383
467.412 132.594
469.282 9.46464
470.349 17.2459
471.191 10.4937
472.698 29.1727
473.389 6.78317
474.349 5.80634
475.337 27.0193
476.537 22.7269
477.336 9.52711
478.295 12.4516
479.252 19.2403
480.377 2.35969
481.369 51.5689
482.154 38.418
482.946 9.05076
483.602 11.1583
484.362 10.8355
485.500 18.7699
486.364 16.5277
487.265 61.0699
488.272 29.8998
489.603 37.4857
490.314 4.8495
491.335 22.0304
492.622 17.8821
494.346 24.0798
495.262 35.208
496.517 34.012
497.482 47.7398
498.435 58.9241
499.389 31.7476
500.430 35.1286
501.421 33.8214
502.389 49.6259
504.408 3.90311
505.181 3.40015
506.311 41.9126
507.609 48.3019
508.374 22.4749
509.523 22.7003
510.619 10.7831
511.266 19.2873
512.333 34.5949
513.565 34.4582
514.449 19.8276
515.590 32.9277
516.378 47.0313
517.458 5.42188
518.324 23.2698
519.153 4.41108
520.231 7.04387
521.675 37.5348
522.987 113.143
523.935 270.528
525.993 40.2205
526.962 34.6693
528.369 15.9663
529.337 8.8644
530.295 44.0906
531.380 41.1911
534.324 63.3314
536.038 19.1011
537.629 14.1403
538.309 30.8936
539.617 71.4438
540.380 65.0601
541.427 4.1143
542.247 7.17184
543.542 35.0323
544.289 30.2885
545.688 28.6171
546.623 35.8189
547.508 76.1479
548.408 56.7021
549.330 70.7295
550.113 37.9715
551.349 90.8704
552.298 26.5931
553.473 37.8166
554.418 35.4541
555.598 29.3495
556.271 34.5172
557.065 57.1534
558.624 65.9844
559.465 71.6206
560.517 208.706
561.566 86.975
562.615 115.151
563.407 41.918
564.541 80.0832
565.413 89.8626
566.422 49.8476
567.542 68.2891
568.360 50.034
569.513 119.887
570.574 84.9109
571.609 92.4836
572.340 39.1938
573.149 60.7648
574.121 93.0422
575.459 74.9604
576.568 48.109
577.671 7.85455
579.298 78.4752
580.534 27.5409
581.543 97.3387
582.747 24.397
584.179 6.27129
584.841 11.3857
585.513 30.5181
587.270 53.1186
588.211 58.2147
589.760 267.513
590.509 26.0193
591.489 39.5959
592.703 35.0955
594.215 222.837
595.313 151.973
596.309 207.227
597.604 43.9283
598.424 47.532
600.072 81.0969
601.242 62.7746
602.386 40.2703
603.361 32.8404
604.469 59.9988
605.414 11.5604
606.676 12.8237
607.422 195.801
608.227 84.7089
609.372 122.566
611.071 590.189
611.988 144.658
613.356 30.372
614.196 33.5045
615.498 14.9892
616.679 28.8982
617.361 84.6378
618.413 194.153
619.479 62.8726
620.786 83.6345
621.754 54.0659
622.417 55.526
623.334 60.012
624.577 128.844
625.752 279.643
626.478 391.008
628.329 13.169
628.951 3.16987
629.575 12.902
630.448 10.1792
652.744 3.17201
653.438 22.354
654.451 17.6138
657.836 23.5663
658.448 14.5479
659.594 81.4943
660.523 17.1719
661.569 12.5152
662.456 6.83115
663.450 8.35242
664.220 13.1499
665.407 7.44189
666.355 15.1641
666.969 18.9082
667.690 19.0631
669.323 5.84468
671.113 43.5065
672.387 36.6122
674.502 31.0581
675.305 17.2226
676.393 26.0186
677.365 5.78382
678.445 10.3555
679.353 2.83848
680.806 33.1919
683.735 64.0219
685.144 45.4726
686.237 35.109
687.242 39.068
688.243 37.4135
689.682 80.0397
690.527 9.0388
692.244 44.282
693.674 264.603
694.640 163.396
695.502 12.7837
696.705 113.771
697.596 49.3294
698.761 31.3365
699.435 34.2118
700.418 18.5998
701.464 32.5147
702.491 3.70996
704.749 38.458
706.224 23.1524
707.039 15.3309
708.950 78.1354
709.690 21.9211
711.445 5.72218
712.491 417.28
713.513 142.056
714.360 29.5353
715.968 13.4562
717.144 59.0505
717.767 9.51845
718.604 26.3323
719.522 14.171
720.474 12.7343
722.519 4.63684
723.622 10.2885
724.318 6.40789
725.377 5.99774
726.498 25.1943
727.191 5.76045
728.399 14.7275
730.231 5.42133
731.371 54.9348
732.878 51.7043
733.778 22.7398
734.475 18.7967
735.189 22.0392
737.536 51.6468
738.415 14.9491
739.936 81.5603
740.577 34.2144
741.435 6.86098
742.894 52.4651
743.805 95.4833
747.554 22.0621
749.075 82.3537
749.842 19.418
751.351 5.15888
752.354 50.2724
753.763 23.7748
754.883 40.1306
755.838 62.1201
756.451 6.6453
757.446 8.05413
758.345 28.7092
759.580 31.2619
760.647 3.91708
761.460 48.551
762.157 97.3385
762.843 2.38984
764.234 30.4256
765.449 12.5802
766.789 61.1334
767.564 71.6057
768.693 43.6764
769.562 23.212
770.705 39.5166
771.509 17.1612
772.479 6.37301
773.287 26.6248
774.542 32.3377
775.739 59.0886
776.563 41.4215
777.560 46.2711
778.820 31.7411
779.791 74.7417
780.491 71.0009
781.324 21.686
783.192 78.8547
783.810 3.47381
785.392 50.1257
786.707 42.9783
787.730 14.5539
788.865 45.1246
789.488 31.7719
790.515 49.7367
791.342 28.7535
792.958 18.2146
794.580 55.0817
795.509 49.3655
797.096 23.341
798.783 82.1833
799.911 43.2831
800.518 48.1948
801.830 44.6233
802.607 57.6168
803.800 27.287
804.598 61.3145
805.546 70.6102
806.563 26.4106
807.528 51.3375
808.365 116.871
809.597 12.7337
810.491 27.6363
811.651 83.663
812.826 25.4056
813.745 24.2082
814.734 70.1375
815.605 9.52695
816.549 32.0763
817.682 21.2536
818.489 15.6127
819.482 91.8072
820.357 53.1699
821.308 17.9279
822.128 24.1986
823.641 76.6723
824.580 55.6002
825.462 27.8072
826.394 9.41164
827.607 14.7773
828.377 14.2295
829.197 12.8016
830.616 27.5558
832.367 28.4826
833.141 22.358
834.905 28.7365
835.790 13.7661
837.213 11.7257
838.933 22.5944
839.750 22.4129
840.618 13.5517
841.616 241.368
842.618 76.1171
843.399 6.97657
844.557 20.6112
845.599 57.8078
846.808 19.87
847.686 70.3338
848.480 17.7245
849.398 13.1077
850.017 20.1467
850.694 5.10075
851.459 15.7178
853.976 46.5191
854.820 11.278
856.106 13.268
856.975 39.7806
858.182 67.4706
860.509 45.5792
862.222 24.8164
863.928 42.2436
864.698 34.4888
865.978 34.6488
866.805 67.7268
867.677 29.8405
869.112 54.9979
870.564 18.2978
871.582 42.5671
872.486 17.6706
873.380 17.6327
874.546 11.4197
875.463 11.6828
876.363 17.2109
877.890 13.4845
879.487 71.6692
880.102 25.8001
884.568 28.6054
886.114 53.1936
887.453 39.6518
888.624 59.4203
889.660 18.8481
890.697 5.52
891.647 14.8878
892.363 42.8239
893.330 204.203
894.643 84.406
895.671 19.7219
896.519 13.41
897.438 29.0051
898.531 44.8543
899.644 36.3663
900.624 58.4995
901.691 20.4624
904.224 38.1324
905.268 40.6816
906.163 6.08676
907.225 5.36289
908.618 16.292
909.694 36.5032
910.572 4.65199
911.434 16.1357
912.953 45.8074
913.578 14.7096
914.620 15.4351
916.536 95.2779
917.555 31.6719
918.324 11.9555
920.567 21.7228
922.319 40.7046
924.395 3.00889
927.445 16.4373
928.357 11.9166
929.033 9.15898
930.348 24.5648
931.717 3.72822
933.517 84.3047
934.656 57.5483
935.293 8.80962
936.524 8.54894
938.631 4.99474
939.735 32.9622
942.638 13.6324
943.687 14.0437
944.628 15.8524
945.520 16.682
946.478 35.3759
947.095 9.99095
948.568 6.72284
950.549 5.64764
952.569 5.41977
955.539 4.01767
956.667 280.896
957.615 141.849
958.461 11.8779
959.546 7.1585
960.458 16.1099
961.621 11.7628
962.486 21.5109
963.657 18.7173
965.647 11.321
966.740 10.5562
967.519 28.77
968.622 4.91084
969.648 14.4956
970.643 5.73673
971.617 13.4363
972.395 6.61207
973.443 22.4287
974.478 3.45204
976.647 7.6234
979.624 12.6292
980.644 13.4919
983.528 7.18879
984.714 7.97638
985.702 11.1892
989.528 7.51309
991.715 12.2876
993.115 7.70737
993.736 15.653
997.230 24.7238
998.411 14.7045
1002.678 11.3346
1003.610 17.1512
1004.411 11.927
1006.475 5.66594
1011.773 10.5932
1013.621 5.62717
1014.737 17.4184
1016.730 10.2372
1017.631 4.01
1018.584 10.3442
1020.299 6.39569
1024.954 22.0082
1028.629 4.13146
1029.560 33.1063
1031.450 35.2892
1033.691 7.14237
1037.675 19.0417
1038.711 6.4841
1040.682 22.3654
1042.084 24.833
1042.878 15.9832
1046.757 107.174
1047.663 60.2423
1050.036 8.63127
1050.640 11.2671
1051.803 27.3157
1052.457 6.816
1055.648 662.884
1056.721 430.371
1057.625 9.52128
1059.527 13.9467
1061.544 14.0475
1062.707 9.46121
1063.717 11.3485
1068.698 9.30901
1069.844 22.6519
1070.957 13.3953
1074.690 21.814
1075.721 8.24739
1077.918 7.28482
1078.957 8.10006
1084.790 7.10029
1085.525 6.43294
1087.876 10.796
1088.693 30.2686
1094.967 9.03326
1095.816 4.82765
1098.615 8.34347
1102.994 10.4899
1104.048 34.4771
1105.649 4.83558
1112.444 7.00446
1113.066 11.0727
1113.818 19.7365
1114.873 6.63974
1115.897 13.1408
1117.545 7.55958
1120.628 15.2804
1123.467 5.32597
1124.765 30.376
1130.944 17.6857
1134.740 6.38043
1140.620 10.4441
1141.786 30.0809
1142.495 17.1652
1150.054 2.72439
1152.849 17.1185
1156.790 7.62675
1157.872 12.6963
1159.798 102.005
1160.639 66.7261
1168.707 77.8081
1169.824 93.8445
1172.656 22.2153
1174.057 8.48052
1186.788 14.2345
1204.783 13.7004
1209.700 10.3019
1212.033 5.05539
1217.899 11.5608
1221.378 5.18049
1228.700 18.5785
1235.786 9.38043
1244.869 6.28625
1247.870 4.37475
1263.666 20.8245
1273.746 10.0836
1289.365 8.47234
END IONS

BEGIN IONS
TITLE=File7571 Spectrum1718 scans: 3815
PEPMASS=653.36102 19218.46875
CHARGE=2+
RTINSECONDS=1422
SCANS=3815
185.137 7.24426
185.931 5.7018
187.080 4.30465
189.780 6.8225
193.029 3.78069
197.258 12.1745
199.026 4.07074
201.177 8.75306
205.152 10.7064
206.125 13.5672
207.475 5.34505
210.054 5.5102
213.109 12.9749
214.077 4.18474
215.214 5.50726
221.189 6.58266
223.127 223.332
224.029 4.49139
225.487 2.96021
226.115 38.7062
227.403 32.6998
228.172 11.4688
229.230 14.1424
230.114 3.00261
232.027 19.0175
233.128 29.2208
234.260 30.3244
235.146 9.58939
236.916 6.19855
239.173 2.20832
240.255 8.19805
241.185 21.3903
242.177 33.8075
244.278 12.5503
245.150 34.3853
246.166 10.7908
249.209 21.2902
251.027 484.324
252.082 83.5004
253.151 21.9425
255.292 15.8227
257.119 8.8124
259.075 7.8061
260.212 15.7443
261.214 13.2355
263.101 4.18394
264.010 3.77578
266.129 5.67459
266.959 5.97939
268.367 33.5888
269.089 26.5695
270.276 29.6163
272.174 11.9568
273.185 7.98358
274.085 4.36763
275.308 13.7233
276.219 18.1655
277.188 14.9618
278.144 32.352
278.795 19.4055
280.188 5.27753
282.239 3.65092
283.262 4.33647
284.199 28.1213
285.184 8.62936
286.188 15.7604
287.178 31.0794
287.967 8.71735
289.183 9.82606
293.242 11.1462
294.211 9.22772
295.152 6.03425
296.055 7.86218
297.838 32.18
299.155 7.64892
300.058 2.70896
301.093 3.96168
302.411 5.37217
304.306 22.1402
305.310 8.62945
306.079 6.57868
308.145 12.4722
309.417 10.1747
310.250 15.3786
311.173 7.40751
312.273 21.8823
313.285 16.1614
314.221 34.138
315.375 35.837
317.220 10.391
319.347 4.99604
322.154 22.2958
323.276 13.5826
324.234 27.3255
326.214 7.11758
327.071 9.22912
329.266 7.53395
330.200 11.0591
331.317 6.40228
332.234 198.202
333.288 35.5829
334.272 8.19859
338.058 20.409
339.624 26.4038
340.452 34.4069
341.263 23.1341
342.292 13.689
343.344 13.6663
344.288 11.7192
346.470 11.4617
347.178 23.7599
348.232 16.5244
349.231 18.126
350.246 117.187
351.401 30.6417
352.267 17.2983
353.292 15.0794
354.248 30.047
355.154 35.8689
356.150 45.2949
357.236 30.4213
359.465 5.5008
361.260 6.67195
362.279 15.5139
363.260 20.9651
364.395 9.78544
365.320 9.70189
367.337 7.41551
368.103 19.0621
369.051 22.1507
371.797 6.9304
373.308 55.2807
374.188 12.7738
375.374 9.62699
376.302 5.01669
377.148 18.2799
378.275 4.74414
379.176 16.4039
380.148 14.5265
381.552 15.2351
382.188 8.95149
383.256 2.80219
384.285 14.8615
385.441 3.1308
386.323 3.09579
387.317 30.7169
388.196 4.0927
389.120 15.5513
390.271 22.9788
391.287 14.8445
392.203 22.8376
392.997 18.3426
394.158 11.964
395.236 5.49203
397.238 21.3159
399.321 21.4444
401.004 28.9028
402.263 12.8685
403.231 14.7488
406.473 15.0799
407.254 31.5319
408.283 13.8054
409.214 14.4571
411.251 8.53325
412.642 18.1895
413.336 4.54055
414.344 30.9828
415.129 7.88684
415.778 18.9747
416.397 42.5785
417.776 10.1542
418.428 10.727
419.236 8.22843
420.011 14.7434
421.167 25.1658
422.209 10.5013
423.030 24.3593
424.164 5.48156
425.291 26.4996
426.482 39.4024
427.313 5.05018
428.308 6.16193
429.230 2.46332
430.296 21.3631
431.282 5.50836
432.293 22.1906
433.381 43.0892
434.641 26.3541
435.322 6.93277
436.708 34.3936
437.737 52.403
440.318 16.551
441.359 26.2991
442.707 14.1322
443.793 38.7702
444.535 15.3382
445.388 3.90282
446.654 41.292
447.458 35.4136
448.279 2.45647
449.523 3.77847
450.900 261.069
451.780 38.8847
453.231 44.462
454.314 60.0404
455.474 21.7513
456.323 4.99895
457.187 2.84507
458.669 24.6119
460.242 19.0149
460.928 33.8269
462.107 8.22525
464.444 24.4212
465.366 212.453
466.521 59.9392
467.371 169.179
468.300 26.1812
469.513 12.9846
470.322 13.0033
471.084 18.8296
472.600 28.4616
473.359 13.8716
474.327 3.65727
476.347 22.1997
478.197 20.6929
479.371 6.17808
480.658 24.9887
481.381 37.6363
482.775 30.1187
483.378 15.6075
484.298 16.4653
485.531 10.3613
486.477 64.0329
487.414 50.7957
488.764 31.4338
489.387 12.736
490.446 5.1467
491.466 15.7393
492.392 41.1528
493.119 5.30546
494.210 16.768
495.295 41.1299
497.346 55.9387
498.358 38.4568
499.010 7.83337
500.549 27.742
501.191 22.5902
502.392 23.1708
505.666 31.8925
506.286 8.41719
507.930 34.6617
509.083 23.7357
510.376 23.2164
511.292 50.2069
513.061 37.7685
513.983 11.0644
514.825 28.7784
515.432 15.6495
517.350 19.7554
518.325 6.16049
519.381 26.8669
520.219 8.9702
520.933 11.5366
522.142 83.3965
523.471 74.785
524.110 57.431
524.755 18.5662
525.375 7.18281
526.828 40.7907
528.396 25.4842
529.555 46.827
530.400 25.6939
531.952 12.8194
533.169 27.7957
534.598 61.5884
535.490 49.4121
537.089 43.0851
537.813 30.6179
539.306 35.7214
539.967 22.2397
542.015 37.8715
543.564 25.2586
544.554 41.7372
545.577 13.9093
546.457 11.2138
547.831 32.7491
548.957 127.337
550.338 58.1044
551.480 28.3782
552.350 15.8988
553.498 50.9542
554.419 27.6662
555.391 22.4896
556.708 16.5909
557.540 44.2885
558.582 42.05
559.419 12.05
560.979 96.6989
561.718 2.2427
562.482 129.645
563.377 30.18
564.383 49.5288
565.491 49.0747
566.445 137.44
567.375 19.0147
568.362 37.112
569.706 55.4545
570.814 62.1513
572.174 45.1156
573.276 40.4702
574.260 38.5768
576.027 19.201
576.705 21.1806
577.563 37.5471
578.582 18.4174
579.335 32.6481
579.971 39.6973
581.744 70.2743
582.467 13.0636
583.192 8.01351
584.326 58.3389
585.620 98.0497
586.308 25.8718
587.762 42.0714
588.403 52.1079
589.547 105.97
590.443 20.8808
591.274 9.75675
592.403 45.2228
593.231 21.9277
594.325 342.732
595.446 91.714
596.286 51.3611
597.391 21.1767
598.883 29.9107
599.680 80.9448
600.425 56.5751
601.339 41.7472
602.559 32.7156
603.305 5.99291
604.227 147.941
605.227 84.782
606.116 41.6134
606.819 25.6567
607.530 65.6668
608.626 101.235
609.600 35.3695
611.264 387.422
612.058 94.1898
613.102 81.1886
614.401 37.7671
615.275 26.8606
616.378 74.796
617.143 106.646
618.302 122.927
619.435 54.762
620.656 54.7449
621.586 62.6278
622.678 80.1709
623.514 36.7056
624.255 40.4405
625.774 231.029
626.709 157.755
627.350 76.7127
628.556 82.7144
629.494 23.5054
630.222 8.99544
635.260 5.77146
643.491 10.7905
647.917 10.5561
652.682 29.7119
653.402 19.6837
654.409 8.95024
656.440 20.9286
657.503 15.0253
658.711 58.0783
659.459 8.92015
660.577 22.1343
661.574 27.451
662.734 14.8167
663.408 24.0183
664.286 5.10685
666.420 3.4061
667.401 7.12356
668.414 3.03584
669.822 32.3628
670.780 6.79106
672.540 11.5651
673.437 5.0283
674.439 48.9656
675.383 26.8932
676.671 31.7218
677.548 37.0371
678.747 39.8972
680.460 3.05456
681.253 3.74537
682.750 16.3294
683.395 17.2057
684.428 15.4803
685.047 7.29384
686.639 39.8636
687.431 43.9891
688.034 4.15335
689.662 14.4915
690.631 35.8542
691.402 23.0657
692.502 32.7673
693.727 125.563
694.453 22.5339
695.450 60.1924
696.339 12.2688
697.539 10.4966
698.620 33.652
700.333 40.1333
701.595 2.17559
702.509 9.98892
703.423 16.6148
704.610 31.8133
705.530 11.2289
706.340 21.3471
708.034 58.1782
709.379 6.38671
710.124 26.1695
711.259 15.2412
712.510 290.156
713.636 217.159
714.679 19.9613
716.009 12.009
717.789 10.9263
718.411 8.18477
719.440 11.8797
721.187 52.848
722.756 28.2172
724.488 37.3694
725.562 11.7918
727.440 64.8029
728.692 49.4105
729.525 10.5287
731.762 24.6248
732.729 26.7645
733.497 11.3294
736.201 8.87849
737.241 19.9843
738.252 35.4555
742.210 30.1076
743.264 49.9586
744.772 31.0835
745.537 6.81144
746.514 30.7421
747.805 8.72647
749.179 49.2476
749.855 24.1376
750.781 25.7421
752.421 8.58268
753.597 15.6851
754.386 33.5814
755.488 38.4817
756.744 18.8312
757.420 7.66846
758.640 19.0489
760.949 22.1119
761.713 14.0581
763.317 8.8449
765.259 58.4902
765.935 6.34851
766.552 10.7062
767.620 33.4978
768.522 14.0891
769.645 15.0012
770.866 25.1106
771.837 4.61384
772.720 56.1872
773.557 31.5454
774.555 42.6195
775.610 69.1734
776.561 37.7866
777.669 22.0057
778.475 13.9813
779.674 47.9831
780.847 69.5118
781.559 23.4655
782.515 25.1503
783.912 38.6468
784.727 29.5429
785.514 67.6808
786.173 22.3267
787.691 29.6533
789.847 22.2984
790.600 19.2957
791.516 46.4511
793.355 8.48889
794.386 77.1201
795.421 34.3457
796.380 44.9459
797.275 52.8382
798.481 8.55525
799.694 24.8831
801.030 115.826
802.420 31.7586
803.464 39.3286
804.642 46.5
805.656 3.12139
806.569 21.2657
807.445 68.5428
808.299 37.053
808.911 18.4383
809.596 2.74685
810.744 25.7494
813.728 36.0683
815.722 47.043
816.458 44.8072
817.333 19.7281
818.075 35.1749
818.965 7.55691
819.570 39.7173
820.483 62.7542
821.685 16.1982
822.538 48.0857
823.586 95.7971
824.644 38.5019
825.597 29.2688
826.462 36.4469
827.277 71.5352
828.028 19.7107
829.074 35.9428
830.220 35.4306
831.659 32.1703
832.790 24.1862
833.899 20.154
835.277 25.2924
836.388 66.5564
837.154 10.4436
840.823 50.2123
841.586 163.863
842.666 112.717
843.510 18.7202
845.228 201.978
846.162 73.399
847.658 5.08753
848.386 4.14675
849.319 4.35318
849.973 29.8542
851.582 4.17719
852.345 10.9652
854.349 27.8478
855.422 3.4742
857.229 35.985
858.378 48.8173
860.177 16.4511
861.752 39.5277
862.693 27.1844
864.388 24.1009
865.773 64.8819
866.483 32.0804
869.396 27.7949
870.638 6.87009
872.081 44.2774
873.193 8.96554
874.766 36.141
875.747 2.34208
877.124 26.468
877.978 60.0656
878.954 21.5942
881.517 6.10847
882.692 7.8223
883.582 9.44342
884.459 30.8143
886.546 48.9483
887.585 37.5288
888.440 35.8278
889.911 22.281
890.763 19.2509
891.542 28.2333
892.780 30.8299
893.612 36.551
894.600 18.8966
896.664 48.5062
897.881 12.29
898.547 18.3578
900.558 145.524
901.473 157.339
902.509 46.4255
904.660 11.4675
905.580 11.5123
906.433 2.21658
908.752 12.0332
909.574 27.2097
910.714 114.584
911.692 41.0393
912.365 5.40306
915.031 32.7995
915.778 5.47049
916.749 39.1467
917.737 18.2107
918.595 37.7882
919.407 12.9764
920.669 6.04267
921.975 56.3461
922.723 12.8693
924.773 12.5076
927.651 11.1163
928.698 6.93893
929.779 29.3845
931.351 21.3404
932.513 5.78735
933.572 31.2364
934.546 34.8212
937.387 4.54479
939.690 12.8709
941.620 3.6061
942.625 10.9987
943.790 12.1718
944.671 63.537
945.703 51.947
946.702 33.2593
949.924 15.3629
951.701 11.8999
954.483 5.1799
956.573 343.448
957.753 174.518
958.960 25.2657
959.856 14.7604
961.602 26.2424
963.481 6.44644
965.196 29.1562
965.815 9.21869
966.860 14.1553
967.772 17.2733
969.534 5.73927
971.688 17.3614
972.579 8.86847
974.691 7.34453
976.690 18.2254
977.768 20.3706
978.816 25.6018
981.703 7.79661
982.626 4.64915
985.529 8.817
986.698 11.9952
988.381 15.5701
992.495 3.66396
993.735 6.63789
994.576 6.51655
997.669 10.6237
998.837 12.322
999.449 2.1995
1001.545 9.22841
1003.254 26.061
1004.667 9.23236
1005.767 7.71009
1010.171 3.77347
1011.582 6.15096
1012.660 5.82921
1015.632 14.6015
1016.646 15.2231
1017.502 15.8311
1018.695 28.7863
1019.708 9.29729
1020.962 6.61117
1021.772 8.91881
1022.727 10.0079
1023.991 3.96082
1026.837 14.5108
1029.371 31.383
1030.666 28.9682
1031.708 23.1511
1032.692 10.8967
1035.356 5.96637
1036.736 16.5077
1037.752 15.3933
1038.839 43.635
1039.704 6.13677
1041.203 4.18537
1042.507 3.66743
1044.835 12.7089
1046.558 79.4893
1047.554 25.289
1050.641 6.72556
1051.565 27.1228
1055.656 703.052
1056.624 274.285
1057.654 51.8436
1058.865 23.0555
1059.700 10.9325
1060.788 2.55179
1063.831 8.53894
1064.853 8.05729
1066.663 8.36081
1067.661 6.14216
1070.556 3.90696
1071.720 21.0343
1074.571 8.29448
1075.765 4.41655
1076.408 3.48301
1077.664 6.66097
1078.558 3.58
1079.580 12.8176
1081.989 7.14178
1087.740 14.5686
1093.752 3.6435
1100.357 10.6411
1101.497 4.0497
1103.758 7.49181
1104.686 18.0093
1111.831 5.01242
1113.738 2.5524
1114.687 7.20648
1115.831 8.08587
1123.797 4.00199
1124.981 5.3467
1127.570 4.10705
1128.984 4.11841
1129.769 10.0259
1130.801 4.52436
1131.849 14.1026
1134.734 31.1013
1137.573 13.0226
1140.721 11.2063
1142.865 14.284
1148.964 3.79176
1149.964 4.86963
1150.766 3.54683
1151.905 8.48528
1153.365 5.106
1156.721 20.9927
1158.039 10.044
1158.947 26.893
1159.808 66.8946
1160.803 92.1314
1163.664 8.18146
1168.911 118.604
1169.832 117.501
1172.000 9.71072
1179.568 7.88445
1182.583 2.96761
1185.709 5.33047
1186.756 8.39017
1188.874 5.45434
1190.774 5.13552
1201.725 4.99681
1222.649 5.50178
1227.698 5.02502
1232.768 10.3461
1236.735 5.85246
1242.840 4.93594
1257.011 13.826
1257.813 5.21548
1265.891 6.94253
1267.901 19.3069
1287.882 5.5228
1314.431 12.76
END IONS

BEGIN IONS
TITLE=File7571 Spectrum1762 scans: 3861
PEPMASS=653.36145 12652.17090
CHARGE=2+
RTINSECONDS=1433
SCANS=3861
183.151 8.14366
195.098 2.96577
200.118 6.76111
201.034 8.59783
204.121 5.62603
205.118 6.85962
206.203 13.4475
207.133 18.4514
208.977 2.04927
211.311 7.4015
214.080 7.2141
215.122 9.8375
216.986 9.81758
221.411 3.16267
222.099 4.53725
223.129 165.484
224.200 41.605
225.002 4.98607
226.218 11.6877
227.991 42.0496
229.096 5.2773
230.026 3.17485
232.959 5.09107
234.099 46.0236
235.028 3.52384
239.223 9.9263
240.301 28.8986
241.111 6.95248
243.195 8.04276
244.135 6.54863
245.025 4.33507
245.800 3.51442
246.430 8.89806
249.136 30.1118
251.034 467.674
252.164 44.3377
253.205 7.01301
254.060 5.25039
257.318 9.01001
258.437 15.5602
260.029 39.9741
261.246 13.325
267.204 2.74602
268.140 13.0557
270.078 9.03235
271.189 6.77457
272.158 7.17115
272.790 8.76998
275.378 7.48614
276.172 12.9854
277.218 21.1928
278.180 9.61578
282.121 26.5614
283.131 11.8116
284.069 18.1796
285.121 43.1814
286.173 26.0908
287.252 10.0075
288.155 13.8052
292.138 15.8646
293.087 9.9952
294.239 12.3416
295.133 3.97949
297.113 8.78552
298.212 4.63543
300.038 18.7518
301.221 7.63359
302.120 18.9307
304.239 34.158
305.375 16.3854
310.431 8.2066
311.037 10.4266
311.938 11.6722
314.018 6.86284
316.345 4.64455
317.920 35.2387
319.492 7.8511
320.231 1.99854
321.245 21.9493
322.128 25.6615
323.177 16.9431
324.079 10.9408
325.280 9.07961
326.264 36.8007
327.197 3.10943
328.143 15.6603
331.276 28.0589
332.179 253.071
334.312 7.90032
335.989 37.7083
338.202 8.96882
340.385 37.9784
341.231 25.0829
342.196 9.16892
343.174 3.99434
344.187 19.2124
345.225 22.8934
347.108 10.5933
348.392 9.4265
349.316 19.3872
350.257 69.0427
351.298 9.23345
352.963 45.1899
354.159 29.4553
355.202 20.6588
356.177 11.0622
357.360 14.7812
358.315 5.32644
359.214 26.0976
360.267 19.0529
362.318 3.37246
363.210 9.39289
364.653 3.78033
365.442 19.0674
366.195 41.1943
367.219 18.1525
368.257 24.3756
369.299 29.9022
370.119 2.49846
371.174 5.06301
372.344 31.1194
373.265 31.6909
374.274 11.5317
375.148 2.98405
377.848 12.374
379.380 5.99444
380.271 4.58402
381.257 7.11193
382.074 23.8719
383.268 19.9008
386.267 8.19383
387.243 7.22406
389.221 18.4255
390.415 19.509
391.286 16.0026
392.329 18.8253
393.036 27.632
395.272 10.0517
396.195 18.0999
396.984 13.218
398.158 11.9695
399.052 10.626
401.232 40.0132
402.119 8.16223
404.245 42.0374
405.176 59.9125
406.196 11.358
407.417 5.81163
408.222 39.8277
410.055 25.8089
411.252 12.3332
412.171 13.2479
413.018 3.1803
414.004 9.98462
415.250 40.0957
416.186 17.4105
417.411 19.8482
418.731 33.8966
419.730 14.7101
421.236 8.00099
424.274 20.8273
425.339 12.2736
426.254 22.4616
427.347 3.30061
428.329 10.3226
429.236 10.7361
429.852 13.8244
431.224 37.4806
432.063 11.935
433.201 19.7831
434.204 13.7715
435.300 3.9199
436.242 5.30369
437.188 21.1414
438.275 5.17459
439.070 11.9624
440.115 13.0079
441.232 58.4492
442.169 21.7339
443.200 25.2013
444.339 12.2601
446.144 17.1881
447.211 53.0561
448.532 11.1923
449.302 7.21459
450.360 44.1721
451.142 9.33084
452.327 101.545
453.432 41.7827
454.359 22.9289
455.209 10.8377
456.021 39.8213
457.232 8.76189
458.426 59.1458
459.185 4.09456
460.337 20.0646
462.182 14.3212
463.189 4.33952
464.412 44.6767
465.343 204.673
466.180 24.6384
467.284 139.757
468.472 19.3654
469.313 16.5326
470.339 32.7188
471.710 20.0687
472.389 13.274
475.312 8.70157
477.562 12.3288
478.386 80.792
479.476 84.3736
480.322 27.8574
481.382 48.6574
482.425 20.0786
483.718 6.43976
484.334 27.7305
485.302 27.9402
487.233 92.1096
488.208 50.782
489.925 89.0675
490.882 30.0198
492.237 9.26589
493.332 3.70649
494.533 18.1885
495.380 34.6721
496.338 5.3312
497.346 7.9723
499.118 7.57366
501.128 14.3001
502.422 69.4602
503.402 10.5993
504.714 16.1217
505.376 12.1219
506.307 13.1634
507.268 14.5356
508.907 29.2054
510.064 44.7651
511.358 8.82479
513.286 23.6561
514.683 14.8526
515.374 9.11005
516.373 22.0822
517.031 34.3047
518.027 41.8358
519.170 25.8548
520.399 63.6388
521.250 59.4866
522.043 36.3798
523.627 115.104
524.399 55.2402
525.317 58.5717
526.454 16.1192
527.465 9.74929
528.257 11.302
529.364 9.69244
530.128 6.78038
531.405 31.7126
533.267 55.0458
534.249 58.8439
535.180 18.0075
536.613 36.6042
537.357 19.434
538.648 69.1272
539.493 26.9778
540.423 58.8257
541.512 74.2682
542.317 27.9428
544.253 28.5731
545.089 12.6142
546.568 33.5411
547.301 29.5402
548.302 5.83604
549.099 38.3264
550.083 49.3355
550.922 40.4518
552.235 46.028
553.337 29.2009
554.470 55.1998
555.444 54.869
556.191 41.1369
557.208 45.0745
558.331 32.1153
559.491 43.7431
560.528 51.3909
561.543 52.0546
562.324 91.716
563.464 39.1751
564.475 108.095
565.495 30.261
566.570 83.8876
567.357 35.0331
568.644 8.23339
569.358 46.3616
570.221 56.2933
570.861 13.4323
572.002 108.014
573.029 30.1378
574.121 67.5231
575.019 77.8031
575.854 32.6059
576.530 119.917
577.388 19.1054
578.512 27.34
579.372 49.9027
580.312 34.3772
581.534 71.0433
582.187 6.89508
583.148 29.4736
584.356 46.7605
585.122 48.6982
586.356 77.0237
587.371 10.025
588.103 30.6121
588.987 33.3001
590.017 58.3747
591.232 61.909
592.122 21.8984
592.962 72.0288
594.314 426.779
595.429 112.198
596.517 64.56
597.620 71.2274
598.643 59.75
599.459 51.9575
600.453 84.7324
601.354 22.93
602.942 184.627
603.754 114.388
604.462 6.34741
605.087 62.9126
605.749 23.7888
606.960 35.7479
608.030 138.034
609.132 109.405
610.254 80.3728
611.125 322.981
612.007 111.687
613.056 71.3479
614.313 57.3704
615.896 60.2779
617.080 106.104
618.361 40.6029
619.329 48.5266
620.546 69.7569
621.617 225.727
622.349 138.223
623.197 61.1763
624.389 100.064
626.008 350.558
626.953 72.655
628.162 48.322
629.605 35.9016
630.796 12.6763
636.298 7.79459
639.240 3.3169
646.459 9.76242
649.861 8.74486
652.505 32.8519
653.397 77.3905
654.667 20.2544
658.472 19.6836
659.429 8.45832
660.488 10.4546
663.234 13.8838
664.451 3.6755
665.443 54.7584
666.446 22.8448
667.345 28.474
668.057 23.9531
668.863 16.739
669.733 44.5175
670.544 41.4906
671.566 47.0587
672.569 10.4851
673.235 33.4784
674.352 15.2324
675.353 14.6642
676.242 4.53625
677.603 41.1074
678.354 22.6199
679.312 18.4984
680.752 13.8675
681.360 3.86791
682.563 21.5341
683.310 11.7023
685.602 34.6682
686.676 80.0317
687.723 50.4611
689.308 48.6915
690.568 18.6675
691.432 21.2421
692.346 8.59775
693.294 21.6132
694.198 71.3035
695.039 41.0805
696.778 40.4967
697.602 7.43402
698.293 37.4402
699.336 12.4712
700.611 52.7567
701.481 10.1258
702.526 61.4234
703.519 30.6489
705.395 10.9922
707.049 35.3807
708.409 45.8362
709.355 47.003
710.544 36.7481
711.589 43.3609
712.411 251.692
713.458 100.075
715.558 10.1417
717.287 18.1903
718.362 88.0566
720.521 14.7345
722.804 26.2862
724.328 18.8149
724.972 15.9758
726.279 29.6369
727.525 65.2174
728.422 7.84824
730.038 51.5208
730.722 16.1775
731.436 29.3609
733.503 108.56
734.425 100.774
735.598 104.002
736.589 55.4139
737.404 7.6912
738.735 28.5689
739.920 18.5044
742.035 17.5857
743.651 55.4189
744.519 33.034
746.479 10.1717
747.460 42.0002
748.661 11.3841
750.041 28.1072
751.085 20.9654
752.123 14.7166
753.273 4.47998
754.501 9.06588
755.382 13.6745
757.395 29.3546
759.025 14.6719
761.525 17.2573
762.670 3.25684
764.592 13.9813
766.318 29.1473
768.424 6.15815
770.670 3.14856
771.476 10.5376
772.321 8.09105
773.423 45.8285
775.251 11.3951
776.465 93.494
777.324 54.857
778.546 84.029
779.594 106.083
780.690 32.102
782.174 63.0303
783.235 15.2465
784.811 24.463
785.849 40.8574
786.691 2.0619
787.579 6.46731
788.564 7.02378
789.449 19.4009
790.484 14.5514
791.390 6.1939
793.283 24.2596
794.439 59.0673
795.695 3.58185
796.747 12.0238
797.557 4.50934
798.676 3.42442
799.681 26.1737
800.459 36.5865
801.456 61.7999
802.686 61.3186
803.514 7.86441
804.617 32.9797
805.643 38.8452
806.552 34.2929
807.478 43.1608
808.520 57.1509
809.510 81.5272
810.761 38.1474
812.605 6.49559
813.451 38.7633
815.180 224.943
816.580 57.2201
817.644 40.7258
818.545 17.3241
819.506 75.2799
820.481 32.4403
822.182 31.6668
823.360 92.6273
824.633 74.8654
826.351 19.6651
827.716 36.3667
828.653 6.34434
830.695 14.4911
831.332 5.59465
832.370 40.4124
833.151 28.8647
833.948 15.8762
835.574 47.9429
836.394 49.3234
837.763 12.8381
839.698 20.4153
840.646 41.6688
841.596 122.774
842.550 105.597
843.654 25.2979
844.584 45.933
845.427 23.673
846.375 14.9015
847.159 19.9578
848.044 11.0805
848.652 12.7074
850.891 22.6328
851.910 12.6493
852.586 94.9128
853.409 10.4101
854.092 20.1738
855.268 66.9681
856.298 26.718
857.671 52.3745
858.448 4.86014
861.747 215.394
862.556 58.5423
863.953 108.631
864.757 108.021
865.608 37.9905
866.462 40.7036
867.559 39.0486
868.946 22.679
871.657 28.9908
872.482 7.12426
873.498 9.51931
874.380 27.3654
875.639 10.1416
876.893 13.9527
877.843 43.1249
878.714 44.2576
881.403 22.2197
883.370 12.93
885.398 76.3916
886.590 114.113
887.497 71.7643
888.576 43.0212
889.526 29.2888
890.674 16.6497
891.578 20.1626
892.532 32.2001
893.460 14.9863
894.435 43.8511
895.498 39.5618
896.484 23.0306
897.406 48.8432
898.573 17.5186
899.569 5.09131
900.710 19.3084
901.667 20.578
902.533 5.46777
903.535 27.6994
904.660 25.8794
908.478 30.1552
909.697 14.803
910.549 9.25458
911.269 19.7397
912.531 6.40569
915.617 16.7334
916.743 14.3114
918.643 8.69911
921.574 35.8873
922.655 4.97519
923.592 7.43193
924.516 3.79735
925.642 12.0299
926.475 40.7482
927.920 55.9009
928.631 38.4238
929.883 61.4152
930.676 13.1874
931.577 14.1304
933.446 61.7332
934.526 39.2062
936.767 1.97999
938.420 5.15117
939.666 27.9453
940.495 11.7812
944.620 22.4637
945.526 33.4492
946.461 19.3813
947.506 7.66011
949.631 16.2564
950.364 7.19208
952.564 10.5357
953.731 9.78097
955.615 6.05207
956.590 238.177
957.668 124.342
958.525 11.6801
960.079 12.9854
961.594 14.9726
963.796 45.1039
964.784 4.37654
965.733 4.43698
966.999 10.9329
967.629 9.54073
970.448 11.1905
971.696 7.14882
974.666 6.2185
975.955 21.7334
979.302 43.3929
983.465 4.33535
985.586 12.4401
990.646 12.3842
991.369 19.8495
992.586 2.6753
993.655 2.46622
994.466 5.0958
1000.693 11.1026
1001.821 14.1944
1002.700 18.8289
1003.650 20.7518
1005.538 22.1479
1007.031 5.6535
1011.069 12.0692
1012.418 29.1147
1014.779 21.0262
1015.896 3.46264
1016.847 2.14457
1017.865 23.109
1018.779 5.48598
1019.919 23.5805
1020.695 14.9658
1021.792 7.2439
1022.785 10.1723
1023.447 5.80677
1024.338 9.46891
1025.698 5.9204
1026.897 10.7056
1027.959 8.02505
1028.779 11.8591
1029.527 6.88062
1030.745 18.051
1031.775 11.755
1032.565 4.43329
1035.659 25.0507
1037.781 9.48452
1038.597 27.3708
1040.795 5.35126
1042.395 3.08519
1043.866 11.8862
1044.688 15.3044
1046.790 48.3079
1047.545 26.6977
1048.829 35.9475
1049.514 6.19025
1050.834 18.1181
1053.681 11.1463
1055.626 684.625
1056.684 391.408
1057.651 30.4362
1058.406 12.6248
1059.667 6.67563
1060.785 15.1895
1061.537 15.4311
1062.569 5.67865
1063.673 9.41327
1064.749 5.243
1066.429 24.4835
1070.644 9.8482
1072.744 6.00715
1073.741 10.4634
1074.817 6.92741
1076.787 15.0534
1077.526 2.83584
1079.750 6.9961
1082.620 9.54104
1087.749 7.00865
1088.652 9.49183
1089.641 3.80023
1094.714 14.5346
1101.331 6.85412
1104.936 33.1376
1106.406 11.0284
1111.687 5.99729
1112.519 3.91876
1113.644 7.73614
1114.789 5.93698
1116.691 2.0862
1117.783 6.44486
1121.809 4.58856
1123.998 7.14404
1125.672 5.34179
1129.237 2.61774
1130.753 10.2855
1131.410 3.13866
1134.655 3.58913
1138.770 5.76062
1139.757 4.85279
1142.604 7.75212
1146.609 17.2065
1148.808 6.00264
1151.709 12.5969
1155.880 4.05461
1158.758 3.68818
1159.619 83.5789
1160.701 55.2056
1163.565 4.06756
1168.109 14.0304
1169.112 62.2903
1169.894 80.094
1176.387 14.4188
1178.745 13.0217
1180.440 5.35193
1188.928 23.9597
1196.586 11.0778
1240.587 7.66679
1241.747 4.73824
1244.733 3.96846
1267.482 20.5787
1274.914 12.6939
1282.738 14.1197
1284.219 2.16834
1293.500 4.5859
1309.064 7.25862
1309.704 9.46382
END IONS

BEGIN IONS
TITLE=File7571 Spectrum1803 scans: 3904
PEPMASS=653.36127 13620.10840
CHARGE=2+
RTINSECONDS=1442
SCANS=3904
166.909 3.45753
186.368 6.57107
187.140 3.8046
188.261 5.53731
190.004 3.63834
191.141 8.82032
193.507 14.6615
199.197 13.1386
200.332 12.8372
201.123 4.37318
202.164 2.90369
203.406 8.90232
204.127 13.9138
206.141 6.56895
207.148 14.5665
209.100 3.42097
212.405 5.91998
213.129 25.7505
217.142 8.64491
218.160 6.2447
219.071 16.8798
220.174 11.9752
221.052 10.2409
222.108 32.2558
223.102 155.766
224.092 28.1364
225.067 9.74794
226.192 12.2671
227.076 11.6874
228.253 21.2826
229.348 18.8846
233.009 13.2717
234.170 27.7635
235.155 14.4502
238.131 13.9271
240.997 2.52589
242.292 22.8665
243.137 24.7074
244.406 10.8548
245.236 18.7995
246.163 3.4275
247.704 12.5548
249.138 15.0906
250.064 18.5561
251.081 526.311
252.117 40.7899
254.207 10.8198
256.043 16.104
257.159 14.8085
259.471 12.9974
260.183 15.3699
261.172 8.45385
262.277 35.7449
264.235 7.99079
265.042 19.5205
267.053 31.5325
269.090 2.79762
270.229 16.9566
270.908 5.08619
272.232 9.57046
274.255 35.1957
275.447 24.478
276.234 36.9923
278.853 10.292
279.991 2.26084
280.850 32.8904
282.247 20.4975
283.397 15.4142
284.209 17.5165
285.107 18.5198
286.028 5.66967
287.207 25.6419
288.097 12.5928
288.841 15.2669
290.180 10.8209
291.183 6.73664
292.579 11.2024
293.467 10.1239
294.203 16.4683
295.222 12.8769
296.451 6.71105
297.355 15.4867
298.057 23.5277
300.170 28.9854
301.135 10.8608
302.205 15.8205
303.181 4.55065
304.195 34.636
307.273 9.00618
310.159 7.78608
312.272 15.3705
313.122 3.31431
314.623 10.8131
315.289 2.87898
317.549 19.9572
318.269 9.00711
321.203 18.6182
322.139 3.95798
323.275 6.44636
324.321 35.5558
325.389 15.5696
326.255 17.2964
327.255 11.908
328.434 21.6672
329.203 6.94577
331.366 18.9589
332.273 276.695
333.269 30.2198
334.344 15.1053
335.163 5.82402
336.070 12.3117
337.045 15.0314
338.615 10.5779
339.356 17.0006
340.202 51.8345
341.215 23.098
342.260 31.0359
343.391 20.3251
344.459 18.2402
345.457 7.90797
346.235 9.08305
347.240 41.9104
349.238 4.83151
350.190 118.036
351.257 23.7488
352.087 5.15584
353.209 46.8435
354.049 6.72002
356.361 9.60338
358.091 37.4646
359.257 2.5585
360.436 6.53052
361.330 27.3908
362.280 16.0582
363.254 4.04131
364.149 2.70446
365.559 8.07015
366.264 8.06111
367.762 11.3972
369.044 22.7802
369.709 7.04066
371.266 24.4276
373.322 64.8022
374.190 42.4876
375.159 11.2335
375.787 3.80802
377.440 4.36616
378.295 3.39791
380.549 6.15445
381.381 44.1558
382.292 14.9903
383.264 6.97975
384.338 9.01819
385.318 38.7806
385.958 1.78559
387.313 15.1513
388.487 32.1656
389.649 19.4274
390.950 16.1148
392.192 27.7222
393.048 19.6006
394.210 30.464
396.668 26.3125
397.503 6.01095
399.146 30.2511
400.281 14.2069
401.408 33.3609
402.733 25.3906
404.186 40.0449
405.327 2.32174
406.369 4.21525
407.619 3.46281
409.455 25.0012
410.383 20.3752
411.358 21.7642
412.722 44.799
413.338 24.617
414.189 13.8067
415.165 19.9962
417.140 91.856
417.775 3.54114
418.513 7.05762
419.462 5.15418
421.270 12.7039
422.554 4.99871
423.424 5.82644
424.774 28.9981
427.281 10.8103
428.261 10.205
429.241 10.3035
430.382 45.8064
431.304 12.4647
432.291 25.2402
433.145 10.566
434.243 54.9014
435.254 15.5749
436.339 29.7652
437.550 4.83307
438.235 29.7778
439.280 26.0881
440.562 43.1394
441.286 16.1081
442.225 27.7453
443.445 14.8116
444.445 40.1335
445.234 41.2462
446.180 16.4262
447.205 68.6336
448.341 15.7586
449.312 10.1746
451.070 40.9011
452.388 32.2012
453.649 51.8517
454.408 37.1603
455.217 23.8438
456.697 22.4106
457.361 28.4271
458.538 23.9462
459.498 46.7584
460.881 38.9631
461.591 8.41399
462.405 7.01936
463.439 10.2718
464.377 67.2102
465.376 192.14
466.265 8.78813
467.591 58.5286
468.453 22.6696
469.528 12.4358
470.609 47.6672
471.799 16.389
473.851 7.7645
475.395 24.2314
476.236 3.83486
477.313 14.9465
478.370 21.512
479.336 41.2452
480.488 7.83242
481.344 27.1201
482.576 33.9568
483.456 8.77071
484.461 23.2929
485.320 6.24478
486.326 20.5957
487.350 115.226
488.489 37.1823
489.489 29.175
490.405 28.7382
491.353 37.739
492.453 28.6436
493.236 26.4349
494.309 22.1619
495.537 47.97
496.507 31.3994
497.394 9.66185
498.393 6.92009
499.155 51.6444
500.389 13.7419
501.072 21.9011
502.697 29.027
503.613 12.0143
504.303 6.88767
506.142 72.1769
507.265 15.0233
508.277 4.1491
509.336 13.2095
510.501 50.0927
511.238 23.1547
512.380 18.6826
513.399 27.4116
514.521 18.7788
515.384 7.68592
516.600 38.6787
517.268 14.2454
518.079 25.1323
518.912 60.1659
520.339 13.4667
521.215 20.5197
522.457 37.9356
523.240 49.7839
524.288 70.9491
525.084 17.5958
525.752 14.1334
526.694 7.5195
527.388 38.2958
528.420 25.8308
529.719 28.1848
530.341 37.2437
531.231 59.9503
532.338 27.7573
533.534 42.8415
534.406 44.7865
535.562 91.2248
536.305 8.217
537.109 41.1235
537.781 2.7787
539.126 84.9595
540.186 38.2531
541.541 66.5432
542.215 10.3866
543.016 26.1902
544.008 31.436
545.539 16.278
546.850 52.5327
548.363 21.4468
549.138 43.2445
550.121 18.9596
551.103 31.5751
552.846 22.563
553.687 55.5826
555.073 60.8664
556.235 81.8547
557.350 58.8252
558.565 11.3786
559.329 11.1955
560.259 8.54461
561.642 52.9311
562.462 186.918
563.645 134.953
564.674 33.7192
565.567 31.5317
566.469 88.3973
567.851 31.3264
568.462 48.8044
569.264 31.2532
570.170 66.1478
571.527 52.9799
572.651 37.9977
573.366 10.3341
574.432 118.597
575.576 52.9281
576.328 97.2799
577.137 45.5346
577.822 27.5545
578.642 10.2797
579.592 11.6933
580.510 60.8415
581.344 31.0118
582.211 93.209
583.455 56.7409
584.666 29.9738
585.554 42.7985
586.679 61.4588
587.640 40.6104
588.405 64.2663
589.497 84.7408
590.652 96.1164
591.655 62.7595
593.221 147.964
594.327 280.709
595.226 83.2237
596.196 23.4728
596.933 67.9823
597.743 33.0873
598.439 24.9123
599.327 20.3812
599.944 78.3824
601.721 87.0277
602.660 71.8212
603.706 68.2911
604.645 135.098
605.338 2.67748
606.050 15.4797
606.663 25.3342
607.364 14.7812
608.155 25.3645
609.436 73.3013
611.076 261.205
612.039 134.21
613.102 61.3445
613.909 49.2073
614.585 10.4418
615.660 102.294
616.516 113.178
617.346 48.3269
618.123 37.134
619.002 48.1887
620.344 171.598
620.985 16.9268
621.757 38.8656
622.499 68.2869
623.221 175.456
624.232 160.563
625.669 220.335
626.523 142.31
627.255 10.3787
628.590 41.0747
629.618 17.3599
630.349 53.3317
631.253 26.2067
646.378 3.79548
652.339 8.73722
653.395 15.3058
654.597 25.1926
655.566 7.29075
656.563 8.59751
657.855 1.93183
659.566 6.06649
660.454 17.8404
661.511 22.1901
663.364 14.7296
664.542 6.78205
665.444 30.9914
666.284 16.2689
667.512 45.5015
668.395 14.3463
669.056 21.7035
670.546 12.8256
671.769 21.865
672.554 46.4725
673.414 6.75368
674.774 25.8566
675.475 9.72992
677.271 22.7138
678.519 21.2634
679.175 3.65185
680.341 34.8042
681.576 9.09809
682.564 12.3419
683.637 14.2227
684.433 8.44893
685.942 4.31696
686.661 39.571
687.662 59.3852
688.359 4.96661
689.412 4.03673
690.022 8.15523
692.532 18.3946
693.501 72.3022
694.691 14.9751
695.608 50.5251
696.676 16.1616
697.439 30.4033
698.703 169.893
699.499 78.1395
700.672 19.2422
701.560 27.1642
702.544 7.23689
703.575 31.4499
705.604 24.6309
706.500 30.2446
708.762 43.5391
709.464 42.3375
711.139 23.4804
712.537 315.991
713.502 125.712
714.644 42.1289
715.905 23.1464
716.841 44.4907
717.831 19.0397
719.103 43.1394
720.513 13.2934
721.538 4.42512
723.213 21.47
724.787 8.10069
725.409 13.7078
726.833 34.3684
727.654 41.7849
728.586 50.6127
729.446 26.0109
730.199 23.801
731.096 47.55
732.452 29.6483
733.557 30.0388
734.535 56.2516
735.580 12.1449
736.517 44.2839
737.483 22.6294
738.542 41.208
739.638 35.0989
740.841 25.2241
741.718 90.2857
742.562 7.51859
744.003 66.4342
745.584 69.3449
746.651 7.7285
748.373 215.555
749.490 57.9568
750.612 6.92031
751.830 25.796
752.716 69.4645
753.502 36.6217
754.838 27.2652
756.325 44.8888
758.149 38.8287
760.033 47.6436
760.822 14.8061
761.929 13.3403
762.549 18.3455
763.624 27.3898
764.497 6.05855
766.067 32.1272
766.922 25.1173
768.163 6.67931
768.764 31.0313
769.530 55.7025
770.166 25.8296
771.502 7.1086
772.164 19.1555
773.758 53.5596
774.750 36.7302
775.573 18.3003
776.242 8.78261
776.850 14.9395
777.578 126.635
778.584 9.34099
779.479 46.7807
780.232 120.02
781.084 12.8675
782.403 32.5194
783.783 21.9221
784.732 58.0741
785.546 14.3829
786.493 21.2038
787.490 29.1493
788.525 64.3398
789.441 3.21127
790.587 25.0749
791.929 13.2238
793.215 18.4737
793.920 14.5156
795.019 21.7368
796.472 59.6655
797.745 12.092
799.765 69.8737
800.843 41.062
801.591 23.6021
803.167 188.68
804.128 80.4852
805.012 15.666
805.660 32.4276
806.451 14.0454
807.517 48.9114
808.513 29.2287
809.704 69.7152
810.978 47.1283
811.774 81.3354
812.560 22.3746
813.649 10.1339
814.890 79.6295
816.543 29.3369
817.692 28.1449
819.510 49.2415
820.457 26.0945
821.284 23.5796
822.540 81.9552
823.495 91.8427
824.611 69.4282
826.785 23.437
827.801 18.1944
829.484 469.99
830.552 92.4032
832.352 51.0572
833.517 3.96743
834.583 12.5065
835.761 10.4351
836.496 23.8714
837.778 37.0983
838.569 17.032
839.474 3.36543
841.484 259.012
842.509 189.368
843.558 21.8614
844.463 7.03163
845.307 22.9334
847.666 35.9415
848.644 14.9386
849.643 14.6052
850.441 30.5235
851.961 13.4248
852.887 33.507
853.692 5.74846
855.511 21.4748
856.532 34.6815
857.866 25.7528
858.602 10.8132
859.584 5.45363
860.833 12.5693
861.498 13.1424
862.500 8.85695
863.618 75.3812
864.730 155.443
865.740 62.4856
866.589 10.4047
868.121 12.7603
868.774 3.20167
870.127 58.6839
871.136 14.1561
872.850 314.393
873.662 126.333
874.717 27.0643
876.542 30.9263
877.850 15.809
879.558 12.7607
880.628 8.28224
882.685 10.0761
883.614 8.6873
885.842 31.8208
887.120 50.5417
887.832 17.4456
889.156 23.4495
890.770 18.7329
891.654 54.5922
892.907 60.6982
893.784 17.1917
895.330 145.073
896.199 96.5826
897.202 22.8481
899.304 22.1282
900.589 50.1441
901.588 4.94147
902.682 6.86157
903.591 12.804
904.728 33.0877
905.626 35.951
906.576 4.33947
908.502 77.4395
909.687 46.8722
910.650 46.0082
911.933 10.0205
912.563 15.8072
914.430 30.3516
915.712 25.8129
916.562 21.6303
917.778 7.61054
918.425 10.9753
921.534 6.67999
922.347 51.3518
923.139 21.8657
924.656 2.57365
926.310 24.2822
929.392 56.133
930.579 9.82308
931.714 4.52684
932.681 12.713
933.607 49.1969
934.550 45.2724
935.906 20.0516
937.266 12.792
938.506 6.92811
939.495 3.66226
940.634 13.8275
942.517 16.8816
943.526 21.9654
944.328 32.3617
945.577 3.80461
946.509 6.76469
947.746 5.79304
950.594 14.4208
953.282 32.489
956.571 396.935
957.660 234.247
958.801 46.31
960.832 6.22334
961.665 4.28558
962.790 4.65152
964.727 19.7929
965.670 12.3021
966.732 6.62056
967.742 25.7705
968.745 7.75338
970.757 14.1573
973.623 4.70607
976.467 24.0957
977.736 7.78125
978.732 23.1848
979.624 37.0097
980.667 8.99731
981.561 17.4811
983.706 18.696
984.471 7.48922
985.578 12.0363
986.452 5.55269
987.572 7.27447
988.593 6.48266
991.713 16.1362
992.722 9.89468
993.543 14.9183
995.860 11.0909
997.106 17.5387
998.742 4.00235
1000.319 16.9028
1001.833 12.821
1002.451 2.33487
1004.499 4.18174
1005.700 98.2914
1007.186 7.00005
1009.383 7.89727
1010.673 35.4702
1013.114 10.6024
1013.879 3.43843
1014.631 4.40727
1015.702 20.0351
1016.814 10.4229
1018.831 7.19125
1020.697 4.83676
1022.235 22.1875
1023.650 9.23232
1027.746 21.2578
1028.640 14.7216
1029.708 46.7026
1035.617 24.0952
1037.751 3.4973
1038.780 16.1102
1040.001 12.0722
1040.816 7.18511
1043.805 20.9099
1045.624 25.5346
1046.859 99.9302
1047.649 30.6445
1050.841 26.6465
1051.630 10.3615
1053.717 3.47389
1055.685 641.199
1056.761 412.614
1057.785 17.9171
1061.604 4.93044
1062.621 30.1457
1063.469 27.7589
1065.087 3.28273
1065.707 5.4431
1066.738 5.28892
1067.855 7.08096
1070.719 2.82361
1071.366 2.39703
1073.242 36.0358
1077.688 9.54805
1085.773 9.48512
1086.993 11.2378
1089.634 19.3451
1093.912 3.86462
1094.646 5.82063
1101.203 4.17774
1102.992 13.3125
1108.670 11.0415
1110.013 4.57749
1111.087 15.7013
1111.761 15.3163
1112.883 7.41142
1113.621 4.98907
1114.747 3.09516
1115.674 10.2794
1116.596 3.92822
1124.002 3.95111
1130.663 7.92272
1131.796 17.9506
1135.047 3.83625
1141.192 17.5013
1141.807 13.479
1142.751 15.9417
1143.512 7.15932
1146.770 15.2352
1147.803 15.8946
1149.755 3.49466
1151.008 10.2837
1151.753 7.92484
1158.771 49.1537
1159.786 113.41
1160.646 32.2511
1161.921 5.71822
1166.639 5.94661
1168.934 64.1154
1169.848 92.5968
1170.848 6.86103
1174.792 4.21107
1177.584 9.81748
1178.772 9.37915
1179.878 24.6648
1181.144 3.27473
1191.732 4.60079
1196.928 6.516
1209.794 5.7418
1230.758 3.97829
1266.025 5.56399
1292.064 5.46048
1293.030 2.72336
1296.832 8.20791
1307.090 3.85983
1309.076 3.52865
1312.503 4.43631
END IONS

